16:21:21:427 -> 3176.00
16:21:21:428 -> 3200.00
16:21:21:428 -> 3226.00
16:21:21:429 -> 3229.00
16:21:21:431 -> 3200.00
16:21:21:432 -> 3219.00
16:21:21:433 -> 3275.00
16:21:21:436 -> 3276.00
16:21:21:436 -> 3312.00
16:21:21:437 -> 3269.00
16:21:21:445 -> 3253.00
16:21:21:445 -> 3257.00
16:21:21:445 -> 3235.00
16:21:21:445 -> 3221.00
16:21:21:445 -> 3199.00
16:21:21:445 -> 3189.00
16:21:21:453 -> 3139.00
16:21:21:453 -> 3192.00
16:21:21:453 -> 3195.00
16:21:21:453 -> 3202.00
16:21:21:453 -> 3234.00
16:21:21:453 -> 3233.00
16:21:21:453 -> 3219.00
16:21:21:460 -> 3304.00
16:21:21:460 -> 3260.00
16:21:21:460 -> 3289.00
16:21:21:460 -> 3269.00
16:21:21:460 -> 3259.00
16:21:21:460 -> 3320.00
16:21:21:461 -> 3179.00
16:21:21:462 -> 3194.00
16:21:21:465 -> 3214.00
16:21:21:465 -> 3216.00
16:21:21:466 -> 3173.00
16:21:21:467 -> 3200.00
16:21:21:468 -> 3204.00
16:21:21:469 -> 3218.00
16:21:21:470 -> 3250.00
16:21:21:471 -> 3220.00
16:21:21:472 -> 3246.00
16:21:21:473 -> 3272.00
16:21:21:475 -> 3313.00
16:21:21:476 -> 3280.00
16:21:21:477 -> 3283.00
16:21:21:478 -> 3253.00
16:21:21:479 -> 3252.00
16:21:21:481 -> 3212.00
16:21:21:482 -> 3230.00
16:21:21:483 -> 3172.00
16:21:21:487 -> 3200.00
16:21:21:487 -> 3216.00
16:21:21:487 -> 3201.00
16:21:21:493 -> 3209.00
16:21:21:493 -> 3265.00
16:21:21:493 -> 3231.00
16:21:21:493 -> 3245.00
16:21:21:501 -> 3249.00
16:21:21:501 -> 3279.00
16:21:21:501 -> 3297.00
16:21:21:501 -> 3291.00
16:21:21:501 -> 3272.00
16:21:21:501 -> 3265.00
16:21:21:501 -> 3214.00
16:21:21:501 -> 3209.00
16:21:21:517 -> 3209.00
16:21:21:517 -> 3208.00
16:21:21:517 -> 3204.00
16:21:21:517 -> 3197.00
16:21:21:517 -> 3194.00
16:21:21:517 -> 3213.00
16:21:21:536 -> 3226.00
16:21:21:536 -> 3192.00
16:21:21:536 -> 3231.00
16:21:21:536 -> 3245.00
16:21:21:536 -> 3310.00
16:21:21:536 -> 3282.00
16:21:21:536 -> 3264.00
16:21:21:536 -> 3270.00
16:21:21:536 -> 3232.00
16:21:21:536 -> 3248.00
16:21:21:536 -> 3243.00
16:21:21:536 -> 3228.00
16:21:21:536 -> 3179.00
16:21:21:536 -> 3182.00
16:21:21:536 -> 3198.00
16:21:21:536 -> 3194.00
16:21:21:536 -> 3231.00
16:21:21:536 -> 3224.00
16:21:21:536 -> 3276.00
16:21:21:536 -> 3247.00
16:21:21:536 -> 3253.00
16:21:21:536 -> 3238.00
16:21:21:536 -> 3287.00
16:21:21:559 -> 3274.00
16:21:21:559 -> 3259.00
16:21:21:559 -> 3252.00
16:21:21:559 -> 3234.00
16:21:21:559 -> 3221.00
16:21:21:559 -> 3178.00
16:21:21:559 -> 3156.00
16:21:21:559 -> 3094.00
16:21:21:559 -> 3205.00
16:21:21:559 -> 3212.00
16:21:21:559 -> 3209.00
16:21:21:559 -> 3242.00
16:21:21:559 -> 3266.00
16:21:21:559 -> 3259.00
16:21:21:559 -> 3284.00
16:21:21:559 -> 3290.00
16:21:21:559 -> 3279.00
16:21:21:559 -> 3256.00
16:21:21:559 -> 3270.00
16:21:21:562 -> 3256.00
16:21:21:562 -> 3252.00
16:21:21:562 -> 3209.00
16:21:21:564 -> 3193.00
16:21:21:564 -> 3202.00
16:21:21:566 -> 3190.00
16:21:21:567 -> 3220.00
16:21:21:568 -> 3217.00
16:21:21:569 -> 3213.00
16:21:21:570 -> 3256.00
16:21:21:571 -> 3230.00
16:21:21:572 -> 3248.00
16:21:21:573 -> 3299.00
16:21:21:575 -> 3269.00
16:21:21:577 -> 3283.00
16:21:21:578 -> 3270.00
16:21:21:578 -> 3268.00
16:21:21:579 -> 3244.00
16:21:21:581 -> 3266.00
16:21:21:582 -> 3218.00
16:21:21:583 -> 3175.00
16:21:21:584 -> 3157.00
16:21:21:585 -> 3193.00
16:21:21:587 -> 3230.00
16:21:21:588 -> 3219.00
16:21:21:589 -> 3228.00
16:21:21:590 -> 3251.00
16:21:21:591 -> 3236.00
16:21:21:593 -> 3238.00
16:21:21:594 -> 3301.00
16:21:21:596 -> 3289.00
16:21:21:598 -> 3280.00
16:21:21:598 -> 3275.00
16:21:21:601 -> 3267.00
16:21:21:601 -> 3230.00
16:21:21:601 -> 3233.00
16:21:21:603 -> 3219.00
16:21:21:604 -> 3182.00
16:21:21:604 -> 3198.00
16:21:21:608 -> 3192.00
16:21:21:608 -> 3211.00
16:21:21:608 -> 3209.00
16:21:21:610 -> 3238.00
16:21:21:611 -> 3228.00
16:21:21:611 -> 3245.00
16:21:21:613 -> 3259.00
16:21:21:614 -> 3213.00
16:21:21:615 -> 3250.00
16:21:21:616 -> 3264.00
16:21:21:618 -> 3281.00
16:21:21:619 -> 3272.00
16:21:21:620 -> 3269.00
16:21:21:621 -> 3253.00
16:21:21:622 -> 3220.00
16:21:21:624 -> 3168.00
16:21:21:632 -> 3156.00
16:21:21:632 -> 3193.00
16:21:21:632 -> 3205.00
16:21:21:632 -> 3218.00
16:21:21:632 -> 3266.00
16:21:21:632 -> 3224.00
16:21:21:632 -> 3225.00
16:21:21:634 -> 3320.00
16:21:21:634 -> 3290.00
16:21:21:635 -> 3272.00
16:21:21:637 -> 3273.00
16:21:21:638 -> 3256.00
16:21:21:639 -> 3235.00
16:21:21:640 -> 3223.00
16:21:21:641 -> 3205.00
16:21:21:643 -> 3187.00
16:21:21:644 -> 3174.00
16:21:21:645 -> 3189.00
16:21:21:646 -> 3196.00
16:21:21:647 -> 3208.00
16:21:21:648 -> 3226.00
16:21:21:650 -> 3231.00
16:21:21:651 -> 3185.00
16:21:21:652 -> 3247.00
16:21:21:653 -> 3266.00
16:21:21:654 -> 3287.00
16:21:21:656 -> 3258.00
16:21:21:658 -> 3284.00
16:21:21:659 -> 3291.00
16:21:21:659 -> 3251.00
16:21:21:660 -> 3234.00
16:21:21:662 -> 3215.00
16:21:21:663 -> 3203.00
16:21:21:664 -> 3216.00
16:21:21:665 -> 3226.00
16:21:21:666 -> 3216.00
16:21:21:668 -> 3207.00
16:21:21:669 -> 3224.00
16:21:21:670 -> 3210.00
16:21:21:671 -> 3245.00
16:21:21:672 -> 3253.00
16:21:21:673 -> 3291.00
16:21:21:675 -> 3319.00
16:21:21:676 -> 3255.00
16:21:21:677 -> 3278.00
16:21:21:678 -> 3253.00
16:21:21:679 -> 3247.00
16:21:21:681 -> 3228.00
16:21:21:682 -> 3222.00
16:21:21:683 -> 3200.00
16:21:21:684 -> 3201.00
16:21:21:685 -> 3166.00
16:21:21:687 -> 3199.00
16:21:21:691 -> 3227.00
16:21:21:691 -> 3221.00
16:21:21:691 -> 3216.00
16:21:21:694 -> 3194.00
16:21:21:694 -> 3273.00
16:21:21:695 -> 3310.00
16:21:21:695 -> 3299.00
16:21:21:707 -> 3267.00
16:21:21:707 -> 3256.00
16:21:21:707 -> 3277.00
16:21:21:707 -> 3235.00
16:21:21:707 -> 3249.00
16:21:21:707 -> 3208.00
16:21:21:707 -> 3192.00
16:21:21:707 -> 3220.00
16:21:21:707 -> 3202.00
16:21:21:707 -> 3198.00
16:21:21:710 -> 3212.00
16:21:21:710 -> 3216.00
16:21:21:711 -> 3228.00
16:21:21:716 -> 3234.00
16:21:21:716 -> 3261.00
16:21:21:716 -> 3271.00
16:21:21:716 -> 3261.00
16:21:21:717 -> 3288.00
16:21:21:718 -> 3275.00
16:21:21:719 -> 3248.00
16:21:21:720 -> 3231.00
16:21:21:721 -> 3259.00
16:21:21:722 -> 3206.00
16:21:21:723 -> 3192.00
16:21:21:725 -> 3185.00
16:21:21:726 -> 3206.00
16:21:21:727 -> 3248.00
16:21:21:728 -> 3223.00
16:21:21:729 -> 3226.00
16:21:21:731 -> 3227.00
16:21:21:732 -> 3261.00
16:21:21:733 -> 3246.00
16:21:21:748 -> 3312.00
16:21:21:748 -> 3255.00
16:21:21:748 -> 3284.00
16:21:21:748 -> 3264.00
16:21:21:748 -> 3265.00
16:21:21:748 -> 3230.00
16:21:21:748 -> 3217.00
16:21:21:748 -> 3164.00
16:21:21:748 -> 3197.00
16:21:21:748 -> 3205.00
16:21:21:748 -> 3185.00
16:21:21:748 -> 3217.00
16:21:21:777 -> 3218.00
16:21:21:777 -> 3224.00
16:21:21:777 -> 3215.00
16:21:21:777 -> 3239.00
16:21:21:777 -> 3272.00
16:21:21:777 -> 3326.00
16:21:21:777 -> 3272.00
16:21:21:777 -> 3278.00
16:21:21:777 -> 3259.00
16:21:21:777 -> 3252.00
16:21:21:777 -> 3218.00
16:21:21:777 -> 3225.00
16:21:21:777 -> 3223.00
16:21:21:777 -> 3164.00
16:21:21:790 -> 3126.00
16:21:21:790 -> 3198.00
16:21:21:790 -> 3204.00
16:21:21:790 -> 3225.00
16:21:21:790 -> 3248.00
16:21:21:790 -> 3211.00
16:21:21:790 -> 3213.00
16:21:21:790 -> 3239.00
16:21:21:790 -> 3302.00
16:21:21:790 -> 3252.00
16:21:21:790 -> 3270.00
16:21:21:790 -> 3261.00
16:21:21:790 -> 3248.00
16:21:21:790 -> 3219.00
16:21:21:790 -> 3208.00
16:21:21:790 -> 3188.00
16:21:21:790 -> 3189.00
16:21:21:790 -> 3199.00
16:21:21:790 -> 3194.00
16:21:21:790 -> 3152.00
16:21:21:794 -> 3218.00
16:21:21:794 -> 3245.00
16:21:21:794 -> 3240.00
16:21:21:794 -> 3267.00
16:21:21:794 -> 3247.00
16:21:21:798 -> 3259.00
16:21:21:798 -> 3266.00
16:21:21:798 -> 3275.00
16:21:21:812 -> 3268.00
16:21:21:812 -> 3250.00
16:21:21:812 -> 3245.00
16:21:21:812 -> 3213.00
16:21:21:812 -> 3174.00
16:21:21:812 -> 3176.00
16:21:21:812 -> 3136.00
16:21:21:812 -> 3214.00
16:21:21:812 -> 3219.00
16:21:21:812 -> 3222.00
16:21:21:812 -> 3240.00
16:21:21:812 -> 3257.00
16:21:21:865 -> 3251.00
16:21:21:865 -> 3247.00
16:21:21:865 -> 3303.00
16:21:21:865 -> 3298.00
16:21:21:865 -> 3277.00
16:21:21:865 -> 3250.00
16:21:21:865 -> 3231.00
16:21:21:865 -> 3203.00
16:21:21:865 -> 3200.00
16:21:21:865 -> 3153.00
16:21:21:908 -> 3188.00
16:21:21:908 -> 3193.00
16:21:21:908 -> 3205.00
16:21:21:908 -> 3151.00
16:21:21:908 -> 3216.00
16:21:21:908 -> 3228.00
16:21:21:908 -> 3236.00
16:21:21:908 -> 3256.00
16:21:21:908 -> 3279.00
16:21:21:908 -> 3282.00
16:21:21:908 -> 3273.00
16:21:21:908 -> 3247.00
16:21:21:908 -> 3246.00
16:21:21:908 -> 3230.00
16:21:21:908 -> 3224.00
16:21:21:908 -> 3215.00
16:21:21:908 -> 3212.00
16:21:21:908 -> 3192.00
16:21:21:908 -> 3201.00
16:21:21:908 -> 3197.00
16:21:21:908 -> 3231.00
16:21:21:908 -> 3227.00
16:21:21:908 -> 3227.00
16:21:21:908 -> 3252.00
16:21:21:908 -> 3279.00
16:21:21:908 -> 3286.00
16:21:21:908 -> 3254.00
16:21:21:908 -> 3292.00
16:21:21:908 -> 3260.00
16:21:21:908 -> 3252.00
16:21:21:908 -> 3239.00
16:21:21:908 -> 3209.00
16:21:21:908 -> 3200.00
16:21:21:908 -> 3135.00
16:21:21:908 -> 3166.00
16:21:21:908 -> 3183.00
16:21:21:908 -> 3209.00
16:21:21:908 -> 3228.00
16:21:21:908 -> 3220.00
16:21:21:908 -> 3235.00
16:21:21:908 -> 3275.00
16:21:21:908 -> 3309.00
16:21:21:908 -> 3287.00
16:21:21:908 -> 3268.00
16:21:21:908 -> 3268.00
16:21:21:908 -> 3246.00
16:21:21:908 -> 3215.00
16:21:21:908 -> 3250.00
16:21:21:908 -> 3266.00
16:21:21:908 -> 3177.00
16:21:21:908 -> 3189.00
16:21:21:908 -> 3192.00
16:21:21:908 -> 3208.00
16:21:21:908 -> 3159.00
16:21:21:908 -> 3227.00
16:21:21:908 -> 3203.00
16:21:21:908 -> 3256.00
16:21:21:908 -> 3248.00
16:21:21:908 -> 3300.00
16:21:21:908 -> 3250.00
16:21:21:908 -> 3287.00
16:21:21:920 -> 3273.00
16:21:21:920 -> 3258.00
16:21:21:920 -> 3259.00
16:21:21:920 -> 3235.00
16:21:21:920 -> 3224.00
16:21:21:920 -> 3189.00
16:21:21:920 -> 3200.00
16:21:21:920 -> 3203.00
16:21:21:920 -> 3214.00
16:21:21:920 -> 3215.00
16:21:21:920 -> 3218.00
16:21:21:920 -> 3203.00
16:21:21:920 -> 3257.00
16:21:21:920 -> 3244.00
16:21:21:920 -> 3289.00
16:21:21:920 -> 3314.00
16:21:21:920 -> 3279.00
16:21:21:920 -> 3275.00
16:21:21:920 -> 3255.00
16:21:21:947 -> 3251.00
16:21:21:947 -> 3236.00
16:21:21:947 -> 3253.00
16:21:21:947 -> 3174.00
16:21:21:947 -> 3176.00
16:21:21:947 -> 3190.00
16:21:21:947 -> 3208.00
16:21:21:947 -> 3225.00
16:21:21:947 -> 3241.00
16:21:21:947 -> 3252.00
16:21:21:947 -> 3238.00
16:21:21:947 -> 3237.00
16:21:21:947 -> 3255.00
16:21:21:947 -> 3251.00
16:21:21:947 -> 3229.00
16:21:21:947 -> 3276.00
16:21:21:987 -> 3267.00
16:21:21:987 -> 3231.00
16:21:21:987 -> 3213.00
16:21:21:987 -> 3196.00
16:21:21:987 -> 3190.00
16:21:21:987 -> 3191.00
16:21:21:987 -> 3203.00
16:21:21:987 -> 3226.00
16:21:21:987 -> 3228.00
16:21:21:987 -> 3197.00
16:21:21:987 -> 3207.00
16:21:21:987 -> 3230.00
16:21:21:987 -> 3272.00
16:21:21:987 -> 3278.00
16:21:21:987 -> 3291.00
16:21:21:987 -> 3278.00
16:21:21:987 -> 3267.00
16:21:21:987 -> 3248.00
16:21:21:987 -> 3210.00
16:21:21:987 -> 3242.00
16:21:21:987 -> 3189.00
16:21:21:987 -> 3203.00
16:21:21:987 -> 3212.00
16:21:21:987 -> 3192.00
16:21:21:987 -> 3231.00
16:21:21:987 -> 3233.00
16:21:21:987 -> 3241.00
16:21:21:987 -> 3244.00
16:21:21:987 -> 3251.00
16:21:21:987 -> 3259.00
16:21:21:987 -> 3266.00
16:21:21:987 -> 3291.00
16:21:21:987 -> 3290.00
16:21:21:987 -> 3262.00
16:21:21:987 -> 3258.00
16:21:21:987 -> 3212.00
16:21:21:987 -> 3207.00
16:21:21:987 -> 3192.00
16:21:21:987 -> 3188.00
16:21:21:987 -> 3167.00
16:21:21:987 -> 3202.00
16:21:22:023 -> 3213.00
16:21:22:023 -> 3213.00
16:21:22:023 -> 3260.00
16:21:22:023 -> 3261.00
16:21:22:023 -> 3249.00
16:21:22:023 -> 3251.00
16:21:22:023 -> 3244.00
16:21:22:023 -> 3267.00
16:21:22:023 -> 3290.00
16:21:22:023 -> 3272.00
16:21:22:023 -> 3257.00
16:21:22:023 -> 3227.00
16:21:22:023 -> 3225.00
16:21:22:023 -> 3221.00
16:21:22:023 -> 3169.00
16:21:22:023 -> 3181.00
16:21:22:023 -> 3191.00
16:21:22:023 -> 3222.00
16:21:22:023 -> 3229.00
16:21:22:023 -> 3232.00
16:21:22:023 -> 3229.00
16:21:22:023 -> 3270.00
16:21:22:023 -> 3311.00
16:21:22:023 -> 3316.00
16:21:22:023 -> 3264.00
16:21:22:023 -> 3275.00
16:21:22:023 -> 3271.00
16:21:22:023 -> 3257.00
16:21:22:023 -> 3210.00
16:21:22:023 -> 3215.00
16:21:22:043 -> 3204.00
16:21:22:043 -> 3201.00
16:21:22:043 -> 3208.00
16:21:22:043 -> 3215.00
16:21:22:043 -> 3222.00
16:21:22:043 -> 3237.00
16:21:22:043 -> 3220.00
16:21:22:043 -> 3217.00
16:21:22:043 -> 3283.00
16:21:22:043 -> 3282.00
16:21:22:043 -> 3291.00
16:21:22:043 -> 3286.00
16:21:22:043 -> 3272.00
16:21:22:043 -> 3260.00
16:21:22:043 -> 3217.00
16:21:22:043 -> 3192.00
16:21:22:043 -> 3217.00
16:21:22:084 -> 3221.00
16:21:22:084 -> 3175.00
16:21:22:084 -> 3199.00
16:21:22:084 -> 3199.00
16:21:22:084 -> 3204.00
16:21:22:084 -> 3230.00
16:21:22:084 -> 3245.00
16:21:22:084 -> 3255.00
16:21:22:084 -> 3245.00
16:21:22:084 -> 3264.00
16:21:22:084 -> 3293.00
16:21:22:084 -> 3273.00
16:21:22:084 -> 3297.00
16:21:22:084 -> 3271.00
16:21:22:084 -> 3282.00
16:21:22:084 -> 3241.00
16:21:22:084 -> 3222.00
16:21:22:084 -> 3161.00
16:21:22:084 -> 3149.00
16:21:22:084 -> 3168.00
16:21:22:084 -> 3215.00
16:21:22:084 -> 3236.00
16:21:22:084 -> 3253.00
16:21:22:084 -> 3232.00
16:21:22:084 -> 3259.00
16:21:22:084 -> 3233.00
16:21:22:084 -> 3264.00
16:21:22:084 -> 3305.00
16:21:22:084 -> 3286.00
16:21:22:084 -> 3271.00
16:21:22:084 -> 3254.00
16:21:22:084 -> 3255.00
16:21:22:084 -> 3202.00
16:21:22:084 -> 3167.00
16:21:22:143 -> 3150.00
16:21:22:143 -> 3185.00
16:21:22:143 -> 3199.00
16:21:22:143 -> 3229.00
16:21:22:143 -> 3248.00
16:21:22:143 -> 3247.00
16:21:22:143 -> 3286.00
16:21:22:143 -> 3292.00
16:21:22:143 -> 3248.00
16:21:22:143 -> 3273.00
16:21:22:143 -> 3270.00
16:21:22:143 -> 3298.00
16:21:22:143 -> 3286.00
16:21:22:143 -> 3247.00
16:21:22:143 -> 3224.00
16:21:22:143 -> 3180.00
16:21:22:143 -> 3195.00
16:21:22:143 -> 3172.00
16:21:22:143 -> 3180.00
16:21:22:143 -> 3213.00
16:21:22:143 -> 3174.00
16:21:22:143 -> 3204.00
16:21:22:143 -> 3270.00
16:21:22:143 -> 3316.00
16:21:22:143 -> 3299.00
16:21:22:143 -> 3254.00
16:21:22:143 -> 3233.00
16:21:22:143 -> 3274.00
16:21:22:143 -> 3250.00
16:21:22:143 -> 3253.00
16:21:22:143 -> 3247.00
16:21:22:143 -> 3282.00
16:21:22:143 -> 3262.00
16:21:22:238 -> 3238.00
16:21:22:238 -> 3207.00
16:21:22:238 -> 3228.00
16:21:22:238 -> 3239.00
16:21:22:238 -> 3245.00
16:21:22:238 -> 3257.00
16:21:22:238 -> 3290.00
16:21:22:238 -> 3280.00
16:21:22:238 -> 3265.00
16:21:22:238 -> 3292.00
16:21:22:238 -> 3354.00
16:21:22:238 -> 3265.00
16:21:22:238 -> 3281.00
16:21:22:238 -> 3269.00
16:21:22:238 -> 3259.00
16:21:22:238 -> 3230.00
16:21:22:238 -> 3155.00
16:21:22:238 -> 3233.00
16:21:22:238 -> 3229.00
16:21:22:238 -> 3221.00
16:21:22:238 -> 3228.00
16:21:22:238 -> 3230.00
16:21:22:238 -> 3253.00
16:21:22:238 -> 3239.00
16:21:22:238 -> 3234.00
16:21:22:238 -> 3259.00
16:21:22:238 -> 3294.00
16:21:22:238 -> 3303.00
16:21:22:238 -> 3312.00
16:21:22:238 -> 3300.00
16:21:22:238 -> 3263.00
16:21:22:238 -> 3270.00
16:21:22:238 -> 3261.00
16:21:22:238 -> 3225.00
16:21:22:238 -> 3152.00
16:21:22:238 -> 3191.00
16:21:22:238 -> 3205.00
16:21:22:238 -> 3243.00
16:21:22:238 -> 3227.00
16:21:22:238 -> 3255.00
16:21:22:238 -> 3233.00
16:21:22:238 -> 3243.00
16:21:22:238 -> 3284.00
16:21:22:238 -> 3303.00
16:21:22:238 -> 3281.00
16:21:22:238 -> 3251.00
16:21:22:238 -> 3227.00
16:21:22:238 -> 3256.00
16:21:22:238 -> 3243.00
16:21:22:238 -> 3235.00
16:21:22:238 -> 3242.00
16:21:22:238 -> 3201.00
16:21:22:238 -> 3227.00
16:21:22:238 -> 3210.00
16:21:22:238 -> 3246.00
16:21:22:238 -> 3278.00
16:21:22:238 -> 3240.00
16:21:22:238 -> 3270.00
16:21:22:238 -> 3259.00
16:21:22:238 -> 3299.00
16:21:22:238 -> 3316.00
16:21:22:238 -> 3277.00
16:21:22:238 -> 3290.00
16:21:22:238 -> 3280.00
16:21:22:238 -> 3280.00
16:21:22:238 -> 3245.00
16:21:22:238 -> 3214.00
16:21:22:238 -> 3226.00
16:21:22:238 -> 3227.00
16:21:22:238 -> 3206.00
16:21:22:238 -> 3202.00
16:21:22:238 -> 3225.00
16:21:22:238 -> 3241.00
16:21:22:238 -> 3246.00
16:21:22:238 -> 3272.00
16:21:22:344 -> 3266.00
16:21:22:344 -> 3335.00
16:21:22:344 -> 3336.00
16:21:22:344 -> 3300.00
16:21:22:344 -> 3280.00
16:21:22:344 -> 3273.00
16:21:22:344 -> 3237.00
16:21:22:344 -> 3237.00
16:21:22:344 -> 3229.00
16:21:22:344 -> 3203.00
16:21:22:344 -> 3194.00
16:21:22:344 -> 3199.00
16:21:22:344 -> 3216.00
16:21:22:344 -> 3244.00
16:21:22:344 -> 3233.00
16:21:22:344 -> 3255.00
16:21:22:344 -> 3268.00
16:21:22:344 -> 3240.00
16:21:22:344 -> 3257.00
16:21:22:344 -> 3225.00
16:21:22:344 -> 3293.00
16:21:22:344 -> 3288.00
16:21:22:344 -> 3266.00
16:21:22:344 -> 3238.00
16:21:22:344 -> 3244.00
16:21:22:344 -> 3223.00
16:21:22:344 -> 3226.00
16:21:22:344 -> 3207.00
16:21:22:344 -> 3205.00
16:21:22:344 -> 3230.00
16:21:22:344 -> 3227.00
16:21:22:344 -> 3195.00
16:21:22:344 -> 3275.00
16:21:22:344 -> 3258.00
16:21:22:344 -> 3252.00
16:21:22:344 -> 3298.00
16:21:22:344 -> 3291.00
16:21:22:344 -> 3305.00
16:21:22:344 -> 3280.00
16:21:22:344 -> 3276.00
16:21:22:344 -> 3269.00
16:21:22:344 -> 3267.00
16:21:22:344 -> 3240.00
16:21:22:359 -> 3135.00
16:21:22:359 -> 3186.00
16:21:22:359 -> 3186.00
16:21:22:359 -> 3233.00
16:21:22:359 -> 3236.00
16:21:22:359 -> 3223.00
16:21:22:359 -> 3248.00
16:21:22:359 -> 3256.00
16:21:22:359 -> 3270.00
16:21:22:359 -> 3252.00
16:21:22:359 -> 3334.00
16:21:22:359 -> 3295.00
16:21:22:359 -> 3274.00
16:21:22:359 -> 3274.00
16:21:22:359 -> 3245.00
16:21:22:359 -> 3222.00
16:21:22:359 -> 3201.00
16:21:22:359 -> 3162.00
16:21:22:359 -> 3210.00
16:21:22:359 -> 3207.00
16:21:22:359 -> 3213.00
16:21:22:359 -> 3230.00
16:21:22:359 -> 3243.00
16:21:22:359 -> 3248.00
16:21:22:359 -> 3232.00
16:21:22:359 -> 3281.00
16:21:22:359 -> 3294.00
16:21:22:359 -> 3292.00
16:21:22:359 -> 3290.00
16:21:22:359 -> 3268.00
16:21:22:359 -> 3255.00
16:21:22:359 -> 3228.00
16:21:22:359 -> 3207.00
16:21:22:359 -> 3177.00
16:21:22:359 -> 3247.00
16:21:22:359 -> 3169.00
16:21:22:359 -> 3225.00
16:21:22:359 -> 3214.00
16:21:22:359 -> 3233.00
16:21:22:359 -> 3222.00
16:21:22:359 -> 3237.00
16:21:22:359 -> 3263.00
16:21:22:359 -> 3315.00
16:21:22:359 -> 3273.00
16:21:22:359 -> 3285.00
16:21:22:359 -> 3288.00
16:21:22:359 -> 3214.00
16:21:22:359 -> 3237.00
16:21:22:359 -> 3241.00
16:21:22:359 -> 3238.00
16:21:22:359 -> 3205.00
16:21:22:359 -> 3184.00
16:21:22:359 -> 3219.00
16:21:22:359 -> 3211.00
16:21:22:359 -> 3209.00
16:21:22:359 -> 3223.00
16:21:22:359 -> 3252.00
16:21:22:359 -> 3234.00
16:21:22:359 -> 3259.00
16:21:22:359 -> 3306.00
16:21:22:359 -> 3297.00
16:21:22:359 -> 3282.00
16:21:22:359 -> 3261.00
16:21:22:359 -> 3252.00
16:21:22:359 -> 3242.00
16:21:22:359 -> 3210.00
16:21:22:359 -> 3221.00
16:21:22:359 -> 3196.00
16:21:22:359 -> 3215.00
16:21:22:359 -> 3197.00
16:21:22:359 -> 3191.00
16:21:22:359 -> 3215.00
16:21:22:359 -> 3231.00
16:21:22:359 -> 3230.00
16:21:22:359 -> 3260.00
16:21:22:359 -> 3265.00
16:21:22:359 -> 3334.00
16:21:22:359 -> 3278.00
16:21:22:359 -> 3274.00
16:21:22:359 -> 3276.00
16:21:22:404 -> 3261.00
16:21:22:404 -> 3247.00
16:21:22:404 -> 3243.00
16:21:22:404 -> 3220.00
16:21:22:404 -> 3215.00
16:21:22:404 -> 3214.00
16:21:22:404 -> 3214.00
16:21:22:404 -> 3212.00
16:21:22:404 -> 3206.00
16:21:22:404 -> 3216.00
16:21:22:404 -> 3226.00
16:21:22:404 -> 3242.00
16:21:22:426 -> 3282.00
16:21:22:426 -> 3251.00
16:21:22:426 -> 3273.00
16:21:22:426 -> 3294.00
16:21:22:426 -> 3280.00
16:21:22:426 -> 3263.00
16:21:22:426 -> 3272.00
16:21:22:426 -> 3227.00
16:21:22:426 -> 3203.00
16:21:22:426 -> 3173.00
16:21:22:426 -> 3202.00
16:21:22:426 -> 3174.00
16:21:22:426 -> 3219.00
16:21:22:426 -> 3234.00
16:21:22:426 -> 3227.00
16:21:22:426 -> 3230.00
16:21:22:426 -> 3266.00
16:21:22:426 -> 3263.00
16:21:22:426 -> 3325.00
16:21:22:426 -> 3306.00
16:21:22:426 -> 3274.00
16:21:22:426 -> 3275.00
16:21:22:426 -> 3250.00
16:21:22:426 -> 3258.00
16:21:22:426 -> 3236.00
16:21:22:426 -> 3193.00
16:21:22:426 -> 3183.00
16:21:22:426 -> 3203.00
16:21:22:426 -> 3204.00
16:21:22:426 -> 3205.00
16:21:22:426 -> 3230.00
16:21:22:426 -> 3242.00
16:21:22:426 -> 3248.00
16:21:22:426 -> 3217.00
16:21:22:426 -> 3250.00
16:21:22:426 -> 3258.00
16:21:22:426 -> 3253.00
16:21:22:426 -> 3264.00
16:21:22:426 -> 3265.00
16:21:22:426 -> 3249.00
16:21:22:426 -> 3225.00
16:21:22:426 -> 3197.00
16:21:22:426 -> 3158.00
16:21:22:426 -> 3181.00
16:21:22:438 -> 3202.00
16:21:22:438 -> 3201.00
16:21:22:438 -> 3228.00
16:21:22:438 -> 3227.00
16:21:22:438 -> 3236.00
16:21:22:438 -> 3220.00
16:21:22:438 -> 3233.00
16:21:22:438 -> 3261.00
16:21:22:438 -> 3295.00
16:21:22:438 -> 3253.00
16:21:22:438 -> 3275.00
16:21:22:454 -> 3273.00
16:21:22:454 -> 3255.00
16:21:22:454 -> 3229.00
16:21:22:454 -> 3221.00
16:21:22:454 -> 3199.00
16:21:22:454 -> 3215.00
16:21:22:454 -> 3198.00
16:21:22:454 -> 3203.00
16:21:22:454 -> 3221.00
16:21:22:454 -> 3229.00
16:21:22:454 -> 3240.00
16:21:22:454 -> 3238.00
16:21:22:454 -> 3308.00
16:21:22:472 -> 3249.00
16:21:22:472 -> 3277.00
16:21:22:472 -> 3277.00
16:21:22:472 -> 3275.00
16:21:22:472 -> 3252.00
16:21:22:472 -> 3217.00
16:21:22:472 -> 3218.00
16:21:22:472 -> 3218.00
16:21:22:472 -> 3210.00
16:21:22:472 -> 3227.00
16:21:22:472 -> 3201.00
16:21:22:472 -> 3261.00
16:21:22:472 -> 3247.00
16:21:22:472 -> 3221.00
16:21:22:472 -> 3218.00
16:21:22:479 -> 3287.00
16:21:22:479 -> 3253.00
16:21:22:479 -> 3276.00
16:21:22:479 -> 3249.00
16:21:22:479 -> 3282.00
16:21:22:479 -> 3282.00
16:21:22:483 -> 3265.00
16:21:22:483 -> 3264.00
16:21:22:483 -> 3217.00
16:21:22:499 -> 3217.00
16:21:22:499 -> 3170.00
16:21:22:499 -> 3197.00
16:21:22:499 -> 3209.00
16:21:22:499 -> 3215.00
16:21:22:499 -> 3226.00
16:21:22:499 -> 3255.00
16:21:22:499 -> 3248.00
16:21:22:499 -> 3258.00
16:21:22:499 -> 3258.00
16:21:22:499 -> 3303.00
16:21:22:499 -> 3270.00
16:21:22:499 -> 3293.00
16:21:22:499 -> 3266.00
16:21:22:509 -> 3259.00
16:21:22:509 -> 3250.00
16:21:22:509 -> 3196.00
16:21:22:509 -> 3192.00
16:21:22:509 -> 3164.00
16:21:22:509 -> 3235.00
16:21:22:509 -> 3229.00
16:21:22:509 -> 3221.00
16:21:22:509 -> 3249.00
16:21:22:514 -> 3237.00
16:21:22:514 -> 3214.00
16:21:22:514 -> 3217.00
16:21:22:518 -> 3283.00
16:21:22:518 -> 3252.00
16:21:22:518 -> 3277.00
16:21:22:518 -> 3271.00
16:21:22:534 -> 3258.00
16:21:22:534 -> 3245.00
16:21:22:534 -> 3259.00
16:21:22:534 -> 3225.00
16:21:22:534 -> 3196.00
16:21:22:534 -> 3145.00
16:21:22:534 -> 3174.00
16:21:22:534 -> 3186.00
16:21:22:534 -> 3206.00
16:21:22:534 -> 3230.00
16:21:22:534 -> 3257.00
16:21:22:534 -> 3229.00
16:21:22:534 -> 3215.00
16:21:22:534 -> 3233.00
16:21:22:540 -> 3246.00
16:21:22:540 -> 3284.00
16:21:22:540 -> 3271.00
16:21:22:540 -> 3267.00
16:21:22:540 -> 3263.00
16:21:22:549 -> 3246.00
16:21:22:549 -> 3222.00
16:21:22:549 -> 3169.00
16:21:22:549 -> 3230.00
16:21:22:549 -> 3226.00
16:21:22:549 -> 3220.00
16:21:22:549 -> 3228.00
16:21:22:554 -> 3231.00
16:21:22:554 -> 3244.00
16:21:22:554 -> 3260.00
16:21:22:554 -> 3242.00
16:21:22:556 -> 3253.00
16:21:22:556 -> 3268.00
16:21:22:573 -> 3280.00
16:21:22:573 -> 3289.00
16:21:22:573 -> 3270.00
16:21:22:573 -> 3240.00
16:21:22:573 -> 3185.00
16:21:22:573 -> 3216.00
16:21:22:573 -> 3232.00
16:21:22:573 -> 3194.00
16:21:22:573 -> 3196.00
16:21:22:573 -> 3224.00
16:21:22:573 -> 3242.00
16:21:22:573 -> 3250.00
16:21:22:573 -> 3256.00
16:21:22:573 -> 3209.00
16:21:22:581 -> 3273.00
16:21:22:581 -> 3294.00
16:21:22:581 -> 3263.00
16:21:22:581 -> 3259.00
16:21:22:581 -> 3249.00
16:21:22:581 -> 3260.00
16:21:22:581 -> 3253.00
16:21:22:595 -> 3225.00
16:21:22:595 -> 3226.00
16:21:22:595 -> 3230.00
16:21:22:595 -> 3201.00
16:21:22:595 -> 3214.00
16:21:22:595 -> 3211.00
16:21:22:595 -> 3202.00
16:21:22:595 -> 3196.00
16:21:22:595 -> 3245.00
16:21:22:595 -> 3273.00
16:21:22:595 -> 3288.00
16:21:22:595 -> 3310.00
16:21:22:598 -> 3326.00
16:21:22:598 -> 3255.00
16:21:22:619 -> 3280.00
16:21:22:619 -> 3263.00
16:21:22:619 -> 3270.00
16:21:22:619 -> 3239.00
16:21:22:619 -> 3209.00
16:21:22:619 -> 3181.00
16:21:22:619 -> 3119.00
16:21:22:619 -> 3197.00
16:21:22:619 -> 3222.00
16:21:22:619 -> 3221.00
16:21:22:619 -> 3250.00
16:21:22:619 -> 3252.00
16:21:22:619 -> 3246.00
16:21:22:628 -> 3279.00
16:21:22:628 -> 3238.00
16:21:22:628 -> 3258.00
16:21:22:628 -> 3277.00
16:21:22:628 -> 3252.00
16:21:22:628 -> 3243.00
16:21:22:628 -> 3219.00
16:21:22:628 -> 3196.00
16:21:22:628 -> 3211.00
16:21:22:628 -> 3231.00
16:21:22:628 -> 3193.00
16:21:22:628 -> 3200.00
16:21:22:628 -> 3214.00
16:21:22:634 -> 3229.00
16:21:22:634 -> 3197.00
16:21:22:634 -> 3223.00
16:21:22:634 -> 3240.00
16:21:22:638 -> 3242.00
16:21:22:638 -> 3262.00
16:21:22:638 -> 3240.00
16:21:22:638 -> 3280.00
16:21:22:643 -> 3284.00
16:21:22:643 -> 3231.00
16:21:22:643 -> 3230.00
16:21:22:643 -> 3206.00
16:21:22:644 -> 3157.00
16:21:22:645 -> 3196.00
16:21:22:646 -> 3196.00
16:21:22:647 -> 3187.00
16:21:22:649 -> 3233.00
16:21:22:649 -> 3191.00
16:21:22:651 -> 3249.00
16:21:22:652 -> 3218.00
16:21:22:653 -> 3247.00
16:21:22:654 -> 3290.00
16:21:22:656 -> 3268.00
16:21:22:667 -> 3265.00
16:21:22:667 -> 3247.00
16:21:22:667 -> 3256.00
16:21:22:667 -> 3258.00
16:21:22:667 -> 3229.00
16:21:22:667 -> 3202.00
16:21:22:667 -> 3159.00
16:21:22:667 -> 3169.00
16:21:22:667 -> 3175.00
16:21:22:697 -> 3241.00
16:21:22:697 -> 3211.00
16:21:22:697 -> 3220.00
16:21:22:697 -> 3216.00
16:21:22:697 -> 3188.00
16:21:22:697 -> 3244.00
16:21:22:697 -> 3310.00
16:21:22:697 -> 3269.00
16:21:22:697 -> 3279.00
16:21:22:697 -> 3257.00
16:21:22:697 -> 3249.00
16:21:22:697 -> 3208.00
16:21:22:697 -> 3219.00
16:21:22:697 -> 3197.00
16:21:22:697 -> 3193.00
16:21:22:697 -> 3189.00
16:21:22:697 -> 3195.00
16:21:22:697 -> 3194.00
16:21:22:697 -> 3211.00
16:21:22:697 -> 3242.00
16:21:22:697 -> 3242.00
16:21:22:697 -> 3246.00
16:21:22:697 -> 3261.00
16:21:22:697 -> 3235.00
16:21:22:697 -> 3248.00
16:21:22:697 -> 3259.00
16:21:22:704 -> 3251.00
16:21:22:704 -> 3241.00
16:21:22:704 -> 3260.00
16:21:22:704 -> 3199.00
16:21:22:704 -> 3187.00
16:21:22:704 -> 3147.00
16:21:22:711 -> 3145.00
16:21:22:711 -> 3200.00
16:21:22:711 -> 3210.00
16:21:22:711 -> 3221.00
16:21:22:711 -> 3199.00
16:21:22:718 -> 3217.00
16:21:22:718 -> 3259.00
16:21:22:718 -> 3272.00
16:21:22:718 -> 3270.00
16:21:22:718 -> 3246.00
16:21:22:718 -> 3236.00
16:21:22:726 -> 3238.00
16:21:22:726 -> 3292.00
16:21:22:726 -> 3218.00
16:21:22:726 -> 3235.00
16:21:22:726 -> 3176.00
16:21:22:726 -> 3149.00
16:21:22:726 -> 3152.00
16:21:22:738 -> 3206.00
16:21:22:738 -> 3203.00
16:21:22:738 -> 3220.00
16:21:22:738 -> 3223.00
16:21:22:738 -> 3215.00
16:21:22:738 -> 3231.00
16:21:22:738 -> 3224.00
16:21:22:738 -> 3210.00
16:21:22:738 -> 3228.00
16:21:22:738 -> 3272.00
16:21:22:740 -> 3251.00
16:21:22:740 -> 3237.00
16:21:22:752 -> 3226.00
16:21:22:752 -> 3207.00
16:21:22:752 -> 3141.00
16:21:22:752 -> 3199.00
16:21:22:752 -> 3196.00
16:21:22:752 -> 3188.00
16:21:22:752 -> 3203.00
16:21:22:752 -> 3213.00
16:21:22:752 -> 3223.00
16:21:22:752 -> 3245.00
16:21:22:756 -> 3233.00
16:21:22:756 -> 3274.00
16:21:22:759 -> 3313.00
16:21:22:759 -> 3283.00
16:21:22:759 -> 3259.00
16:21:22:763 -> 3249.00
16:21:22:763 -> 3222.00
16:21:22:763 -> 3227.00
16:21:22:766 -> 3197.00
16:21:22:766 -> 3158.00
16:21:22:766 -> 3187.00
16:21:22:771 -> 3177.00
16:21:22:771 -> 3169.00
16:21:22:771 -> 3208.00
16:21:22:771 -> 3214.00
16:21:22:773 -> 3218.00
16:21:22:773 -> 3243.00
16:21:22:780 -> 3250.00
16:21:22:780 -> 3228.00
16:21:22:780 -> 3270.00
16:21:22:780 -> 3243.00
16:21:22:780 -> 3254.00
16:21:22:780 -> 3241.00
16:21:22:792 -> 3246.00
16:21:22:792 -> 3212.00
16:21:22:792 -> 3182.00
16:21:22:792 -> 3191.00
16:21:22:792 -> 3172.00
16:21:22:792 -> 3169.00
16:21:22:792 -> 3176.00
16:21:22:794 -> 3202.00
16:21:22:794 -> 3209.00
16:21:22:794 -> 3243.00
16:21:22:794 -> 3250.00
16:21:22:794 -> 3218.00
16:21:22:797 -> 3286.00
16:21:22:797 -> 3255.00
16:21:22:797 -> 3255.00
16:21:22:807 -> 3255.00
16:21:22:807 -> 3234.00
16:21:22:807 -> 3203.00
16:21:22:807 -> 3215.00
16:21:22:807 -> 3180.00
16:21:22:807 -> 3187.00
16:21:22:807 -> 3178.00
16:21:22:812 -> 3197.00
16:21:22:812 -> 3189.00
16:21:22:812 -> 3176.00
16:21:22:812 -> 3205.00
16:21:22:812 -> 3216.00
16:21:22:818 -> 3244.00
16:21:22:818 -> 3208.00
16:21:22:818 -> 3226.00
16:21:22:818 -> 3283.00
16:21:22:818 -> 3246.00
16:21:22:822 -> 3247.00
16:21:22:822 -> 3233.00
16:21:22:822 -> 3220.00
16:21:22:822 -> 3201.00
16:21:22:823 -> 3167.00
16:21:22:834 -> 3188.00
16:21:22:834 -> 3183.00
16:21:22:834 -> 3207.00
16:21:22:834 -> 3119.00
16:21:22:834 -> 3194.00
16:21:22:834 -> 3153.00
16:21:22:834 -> 3141.00
16:21:22:834 -> 3192.00
16:21:22:834 -> 3217.00
16:21:22:836 -> 3285.00
16:21:22:848 -> 3278.00
16:21:22:848 -> 3278.00
16:21:22:848 -> 3236.00
16:21:22:848 -> 3219.00
16:21:22:848 -> 3212.00
16:21:22:848 -> 3199.00
16:21:22:848 -> 3175.00
16:21:22:859 -> 3174.00
16:21:22:859 -> 3169.00
16:21:22:859 -> 3185.00
16:21:22:859 -> 3194.00
16:21:22:859 -> 3210.00
16:21:22:859 -> 3244.00
16:21:22:859 -> 3236.00
16:21:22:859 -> 3232.00
16:21:22:859 -> 3261.00
16:21:22:859 -> 3240.00
16:21:22:859 -> 3255.00
16:21:22:859 -> 3248.00
16:21:22:859 -> 3244.00
16:21:22:863 -> 3231.00
16:21:22:863 -> 3199.00
16:21:22:863 -> 3199.00
16:21:22:871 -> 3179.00
16:21:22:871 -> 3162.00
16:21:22:871 -> 3185.00
16:21:22:871 -> 3190.00
16:21:22:871 -> 3192.00
16:21:22:871 -> 3207.00
16:21:22:871 -> 3200.00
16:21:22:884 -> 3235.00
16:21:22:884 -> 3236.00
16:21:22:884 -> 3278.00
16:21:22:884 -> 3233.00
16:21:22:884 -> 3250.00
16:21:22:884 -> 3248.00
16:21:22:884 -> 3240.00
16:21:22:884 -> 3195.00
16:21:22:884 -> 3237.00
16:21:22:884 -> 3208.00
16:21:22:884 -> 3197.00
16:21:22:889 -> 3129.00
16:21:22:889 -> 3181.00
16:21:22:889 -> 3185.00
16:21:22:893 -> 3204.00
16:21:22:893 -> 3205.00
16:21:22:893 -> 3233.00
16:21:22:893 -> 3223.00
16:21:22:933 -> 3268.00
16:21:22:933 -> 3240.00
16:21:22:933 -> 3283.00
16:21:22:933 -> 3250.00
16:21:22:933 -> 3243.00
16:21:22:933 -> 3242.00
16:21:22:933 -> 3203.00
16:21:22:933 -> 3213.00
16:21:22:933 -> 3192.00
16:21:22:933 -> 3202.00
16:21:22:933 -> 3174.00
16:21:22:933 -> 3198.00
16:21:22:933 -> 3189.00
16:21:22:933 -> 3198.00
16:21:22:933 -> 3192.00
16:21:22:933 -> 3216.00
16:21:22:948 -> 3225.00
16:21:22:948 -> 3230.00
16:21:22:948 -> 3239.00
16:21:22:948 -> 3242.00
16:21:22:948 -> 3244.00
16:21:22:948 -> 3241.00
16:21:22:948 -> 3226.00
16:21:22:948 -> 3229.00
16:21:22:948 -> 3220.00
16:21:22:948 -> 3176.00
16:21:22:948 -> 3115.00
16:21:22:948 -> 3163.00
16:21:22:948 -> 3194.00
16:21:22:948 -> 3189.00
16:21:22:948 -> 3186.00
16:21:22:948 -> 3211.00
16:21:22:948 -> 3226.00
16:21:22:948 -> 3215.00
16:21:22:948 -> 3281.00
16:21:22:951 -> 3268.00
16:21:22:951 -> 3273.00
16:21:22:951 -> 3249.00
16:21:22:951 -> 3245.00
16:21:22:951 -> 3231.00
16:21:22:951 -> 3226.00
16:21:22:951 -> 3210.00
16:21:22:951 -> 3178.00
16:21:22:951 -> 3186.00
16:21:22:951 -> 3176.00
16:21:22:951 -> 3192.00
16:21:22:951 -> 3193.00
16:21:22:951 -> 3179.00
16:21:22:951 -> 3232.00
16:21:22:960 -> 3232.00
16:21:22:960 -> 3240.00
16:21:22:960 -> 3296.00
16:21:22:960 -> 3265.00
16:21:22:960 -> 3263.00
16:21:22:960 -> 3257.00
16:21:22:960 -> 3244.00
16:21:22:960 -> 3245.00
16:21:22:967 -> 3242.00
16:21:22:967 -> 3219.00
16:21:22:967 -> 3221.00
16:21:22:967 -> 3201.00
16:21:22:967 -> 3187.00
16:21:22:967 -> 3202.00
16:21:22:971 -> 3187.00
16:21:22:971 -> 3214.00
16:21:22:973 -> 3211.00
16:21:22:973 -> 3225.00
16:21:22:982 -> 3244.00
16:21:22:982 -> 3285.00
16:21:22:982 -> 3246.00
16:21:22:982 -> 3275.00
16:21:22:982 -> 3246.00
16:21:22:982 -> 3259.00
16:21:22:982 -> 3240.00
16:21:22:982 -> 3216.00
16:21:22:993 -> 3200.00
16:21:22:993 -> 3177.00
16:21:22:993 -> 3220.00
16:21:22:993 -> 3197.00
16:21:22:993 -> 3217.00
16:21:22:993 -> 3231.00
16:21:22:993 -> 3225.00
16:21:22:993 -> 3215.00
16:21:22:993 -> 3221.00
16:21:23:002 -> 3228.00
16:21:23:002 -> 3249.00
16:21:23:002 -> 3294.00
16:21:23:002 -> 3265.00
16:21:23:002 -> 3258.00
16:21:23:002 -> 3252.00
16:21:23:002 -> 3249.00
16:21:23:002 -> 3227.00
16:21:23:007 -> 3191.00
16:21:23:007 -> 3195.00
16:21:23:007 -> 3189.00
16:21:23:007 -> 3175.00
16:21:23:014 -> 3205.00
16:21:23:014 -> 3221.00
16:21:23:014 -> 3238.00
16:21:23:014 -> 3222.00
16:21:23:014 -> 3326.00
16:21:23:014 -> 3264.00
16:21:23:015 -> 3296.00
16:21:23:018 -> 3256.00
16:21:23:018 -> 3250.00
16:21:23:020 -> 3261.00
16:21:23:020 -> 3245.00
16:21:23:021 -> 3219.00
16:21:23:022 -> 3235.00
16:21:23:033 -> 3196.00
16:21:23:033 -> 3181.00
16:21:23:033 -> 3156.00
16:21:23:033 -> 3197.00
16:21:23:033 -> 3228.00
16:21:23:033 -> 3212.00
16:21:23:033 -> 3201.00
16:21:23:033 -> 3222.00
16:21:23:037 -> 3251.00
16:21:23:037 -> 3255.00
16:21:23:037 -> 3233.00
16:21:23:037 -> 3270.00
16:21:23:045 -> 3258.00
16:21:23:045 -> 3286.00
16:21:23:045 -> 3304.00
16:21:23:045 -> 3261.00
16:21:23:045 -> 3208.00
16:21:23:045 -> 3185.00
16:21:23:045 -> 3191.00
16:21:23:049 -> 3243.00
16:21:23:049 -> 3226.00
16:21:23:049 -> 3250.00
16:21:23:078 -> 3248.00
16:21:23:078 -> 3225.00
16:21:23:078 -> 3232.00
16:21:23:078 -> 3227.00
16:21:23:078 -> 3288.00
16:21:23:078 -> 3291.00
16:21:23:078 -> 3265.00
16:21:23:078 -> 3257.00
16:21:23:078 -> 3282.00
16:21:23:078 -> 3244.00
16:21:23:078 -> 3268.00
16:21:23:078 -> 3218.00
16:21:23:078 -> 3163.00
16:21:23:078 -> 3137.00
16:21:23:078 -> 3178.00
16:21:23:078 -> 3242.00
16:21:23:078 -> 3244.00
16:21:23:078 -> 3196.00
16:21:23:078 -> 3231.00
16:21:23:078 -> 3287.00
16:21:23:078 -> 3263.00
16:21:23:078 -> 3251.00
16:21:23:078 -> 3301.00
16:21:23:078 -> 3300.00
16:21:23:078 -> 3285.00
16:21:23:102 -> 3276.00
16:21:23:102 -> 3289.00
16:21:23:102 -> 3237.00
16:21:23:102 -> 3222.00
16:21:23:102 -> 3191.00
16:21:23:102 -> 3229.00
16:21:23:102 -> 3210.00
16:21:23:102 -> 3233.00
16:21:23:102 -> 3267.00
16:21:23:102 -> 3249.00
16:21:23:102 -> 3257.00
16:21:23:102 -> 3270.00
16:21:23:102 -> 3285.00
16:21:23:102 -> 3305.00
16:21:23:102 -> 3270.00
16:21:23:102 -> 3329.00
16:21:23:102 -> 3288.00
16:21:23:102 -> 3304.00
16:21:23:102 -> 3252.00
16:21:23:102 -> 3259.00
16:21:23:110 -> 3247.00
16:21:23:110 -> 3249.00
16:21:23:110 -> 3217.00
16:21:23:110 -> 3182.00
16:21:23:110 -> 3193.00
16:21:23:110 -> 3205.00
16:21:23:110 -> 3256.00
16:21:23:120 -> 3267.00
16:21:23:120 -> 3259.00
16:21:23:120 -> 3277.00
16:21:23:120 -> 3296.00
16:21:23:120 -> 3281.00
16:21:23:120 -> 3325.00
16:21:23:120 -> 3282.00
16:21:23:120 -> 3252.00
16:21:23:151 -> 3264.00
16:21:23:151 -> 3200.00
16:21:23:151 -> 3133.00
16:21:23:151 -> 3172.00
16:21:23:151 -> 3323.00
16:21:23:151 -> 3273.00
16:21:23:151 -> 3277.00
16:21:23:151 -> 3244.00
16:21:23:151 -> 3239.00
16:21:23:151 -> 3268.00
16:21:23:161 -> 3279.00
16:21:23:161 -> 3293.00
16:21:23:161 -> 3358.00
16:21:23:161 -> 3350.00
16:21:23:161 -> 3304.00
16:21:23:161 -> 3293.00
16:21:23:161 -> 3260.00
16:21:23:161 -> 3245.00
16:21:23:161 -> 3298.00
16:21:23:161 -> 3179.00
16:21:23:161 -> 3133.00
16:21:23:161 -> 3185.00
16:21:23:161 -> 3334.00
16:21:23:161 -> 3308.00
16:21:23:161 -> 3230.00
16:21:23:161 -> 3255.00
16:21:23:161 -> 3233.00
16:21:23:161 -> 3319.00
16:21:23:161 -> 3308.00
16:21:23:161 -> 3348.00
16:21:23:161 -> 3291.00
16:21:23:161 -> 3337.00
16:21:23:161 -> 3318.00
16:21:23:161 -> 3316.00
16:21:23:161 -> 3226.00
16:21:23:167 -> 3227.00
16:21:23:167 -> 3196.00
16:21:23:167 -> 3171.00
16:21:23:167 -> 3186.00
16:21:23:169 -> 3253.00
16:21:23:169 -> 3268.00
16:21:23:170 -> 3276.00
16:21:23:171 -> 3285.00
16:21:23:175 -> 3282.00
16:21:23:175 -> 3286.00
16:21:23:175 -> 3362.00
16:21:23:176 -> 3316.00
16:21:23:177 -> 3284.00
16:21:23:178 -> 3339.00
16:21:23:179 -> 3328.00
16:21:23:180 -> 3327.00
16:21:23:182 -> 3292.00
16:21:23:183 -> 3246.00
16:21:23:184 -> 3191.00
16:21:23:185 -> 3142.00
16:21:23:186 -> 3191.00
16:21:23:188 -> 3208.00
16:21:23:189 -> 3265.00
16:21:23:190 -> 3236.00
16:21:23:191 -> 3274.00
16:21:23:192 -> 3278.00
16:21:23:193 -> 3276.00
16:21:23:195 -> 3259.00
16:21:23:196 -> 3292.00
16:21:23:197 -> 3342.00
16:21:23:198 -> 3320.00
16:21:23:199 -> 3332.00
16:21:23:201 -> 3331.00
16:21:23:202 -> 3313.00
16:21:23:203 -> 3272.00
16:21:23:204 -> 3236.00
16:21:23:205 -> 3208.00
16:21:23:207 -> 3267.00
16:21:23:209 -> 3282.00
16:21:23:209 -> 3274.00
16:21:23:211 -> 3269.00
16:21:23:212 -> 3266.00
16:21:23:213 -> 3245.00
16:21:23:214 -> 3284.00
16:21:23:217 -> 3242.00
16:21:23:217 -> 3260.00
16:21:23:218 -> 3310.00
16:21:23:218 -> 3313.00
16:21:23:220 -> 3334.00
16:21:23:221 -> 3276.00
16:21:23:222 -> 3231.00
16:21:23:224 -> 3222.00
16:21:23:228 -> 3252.00
16:21:23:228 -> 3248.00
16:21:23:228 -> 3196.00
16:21:23:253 -> 3167.00
16:21:23:253 -> 3212.00
16:21:23:253 -> 3233.00
16:21:23:253 -> 3246.00
16:21:23:253 -> 3248.00
16:21:23:253 -> 3234.00
16:21:23:253 -> 3229.00
16:21:23:253 -> 3116.00
16:21:23:253 -> 3269.00
16:21:23:253 -> 3276.00
16:21:23:253 -> 3253.00
16:21:23:253 -> 3277.00
16:21:23:253 -> 3229.00
16:21:23:253 -> 3252.00
16:21:23:253 -> 3261.00
16:21:23:253 -> 3292.00
16:21:23:253 -> 3233.00
16:21:23:253 -> 3299.00
16:21:23:253 -> 3322.00
16:21:23:253 -> 3245.00
16:21:23:253 -> 3266.00
16:21:23:253 -> 3276.00
16:21:23:267 -> 3304.00
16:21:23:267 -> 3314.00
16:21:23:267 -> 3288.00
16:21:23:267 -> 3243.00
16:21:23:267 -> 3219.00
16:21:23:267 -> 3255.00
16:21:23:267 -> 3296.00
16:21:23:267 -> 3217.00
16:21:23:267 -> 3178.00
16:21:23:267 -> 3258.00
16:21:23:267 -> 3231.00
16:21:23:303 -> 3253.00
16:21:23:303 -> 3220.00
16:21:23:303 -> 3210.00
16:21:23:303 -> 3203.00
16:21:23:303 -> 3378.00
16:21:23:303 -> 3316.00
16:21:23:303 -> 3373.00
16:21:23:303 -> 3362.00
16:21:23:303 -> 3285.00
16:21:23:303 -> 3286.00
16:21:23:303 -> 3249.00
16:21:23:303 -> 3282.00
16:21:23:303 -> 3308.00
16:21:23:303 -> 3323.00
16:21:23:303 -> 3249.00
16:21:23:303 -> 3241.00
16:21:23:303 -> 3244.00
16:21:23:303 -> 3221.00
16:21:23:303 -> 3251.00
16:21:23:303 -> 3237.00
16:21:23:303 -> 3219.00
16:21:23:303 -> 3185.00
16:21:23:303 -> 3090.00
16:21:23:303 -> 3151.00
16:21:23:303 -> 3169.00
16:21:23:303 -> 3285.00
16:21:23:303 -> 3355.00
16:21:23:303 -> 3358.00
16:21:23:303 -> 3162.00
16:21:23:303 -> 3232.00
16:21:23:328 -> 3228.00
16:21:23:328 -> 3229.00
16:21:23:328 -> 3179.00
16:21:23:328 -> 3130.00
16:21:23:328 -> 3060.00
16:21:23:328 -> 3087.00
16:21:23:328 -> 3275.00
16:21:23:328 -> 3328.00
16:21:23:328 -> 3284.00
16:21:23:328 -> 3261.00
16:21:23:328 -> 3316.00
16:21:23:328 -> 3310.00
16:21:23:328 -> 3164.00
16:21:23:328 -> 3265.00
16:21:23:328 -> 3220.00
16:21:23:328 -> 3072.00
16:21:23:328 -> 3242.00
16:21:23:328 -> 3194.00
16:21:23:328 -> 3201.00
16:21:23:328 -> 3314.00
16:21:23:328 -> 3196.00
16:21:23:379 -> 3210.00
16:21:23:379 -> 3283.00
16:21:23:379 -> 3211.00
16:21:23:379 -> 3304.00
16:21:23:379 -> 3323.00
16:21:23:379 -> 3113.00
16:21:23:379 -> 3338.00
16:21:23:379 -> 3150.00
16:21:23:379 -> 3023.00
16:21:23:379 -> 3112.00
16:21:23:379 -> 3060.00
16:21:23:379 -> 2960.00
16:21:23:379 -> 3018.00
16:21:23:379 -> 3196.00
16:21:23:379 -> 3356.00
16:21:23:379 -> 3559.00
16:21:23:379 -> 3464.00
16:21:23:379 -> 3201.00
16:21:23:379 -> 3247.00
16:21:23:379 -> 3106.00
16:21:23:379 -> 3120.00
16:21:23:379 -> 3132.00
16:21:23:379 -> 3117.00
16:21:23:379 -> 3189.00
16:21:23:379 -> 3087.00
16:21:23:379 -> 2830.00
16:21:23:379 -> 2827.00
16:21:23:379 -> 3419.00
16:21:23:379 -> 3557.00
16:21:23:379 -> 3283.00
16:21:23:379 -> 3068.00
16:21:23:379 -> 3030.00
16:21:23:379 -> 3203.00
16:21:23:379 -> 3374.00
16:21:23:391 -> 3438.00
16:21:23:391 -> 3459.00
16:21:23:391 -> 3537.00
16:21:23:391 -> 3469.00
16:21:23:391 -> 3083.00
16:21:23:391 -> 2953.00
16:21:23:391 -> 2716.00
16:21:23:391 -> 2791.00
16:21:23:391 -> 3308.00
16:21:23:391 -> 3266.00
16:21:23:391 -> 3114.00
16:21:23:391 -> 2856.00
16:21:23:391 -> 2944.00
16:21:23:391 -> 3209.00
16:21:23:391 -> 3451.00
16:21:23:391 -> 3795.00
16:21:23:391 -> 3692.00
16:21:23:391 -> 3220.00
16:21:23:391 -> 3231.00
16:21:23:391 -> 3373.00
16:21:23:395 -> 3123.00
16:21:23:395 -> 3258.00
16:21:23:395 -> 3271.00
16:21:23:396 -> 3037.00
16:21:23:397 -> 3269.00
16:21:23:398 -> 3663.00
16:21:23:399 -> 3642.00
16:21:23:401 -> 3798.00
16:21:23:402 -> 3606.00
16:21:23:403 -> 3188.00
16:21:23:404 -> 3116.00
16:21:23:405 -> 3125.00
16:21:23:407 -> 2996.00
16:21:23:408 -> 2977.00
16:21:23:409 -> 3140.00
16:21:23:410 -> 2990.00
16:21:23:411 -> 2863.00
16:21:23:412 -> 3029.00
16:21:23:414 -> 3014.00
16:21:23:415 -> 3488.00
16:21:23:416 -> 3446.00
16:21:23:417 -> 3320.00
16:21:23:418 -> 3563.00
16:21:23:420 -> 3476.00
16:21:23:421 -> 3537.00
16:21:23:422 -> 3399.00
16:21:23:423 -> 3437.00
16:21:23:424 -> 3259.00
16:21:23:426 -> 3322.00
16:21:23:427 -> 3268.00
16:21:23:428 -> 2988.00
16:21:23:429 -> 2933.00
16:21:23:430 -> 2842.00
16:21:23:432 -> 3048.00
16:21:23:466 -> 3134.00
16:21:23:466 -> 3090.00
16:21:23:502 -> 3082.00
16:21:23:502 -> 3481.00
16:21:23:502 -> 3826.00
16:21:23:502 -> 3791.00
16:21:23:502 -> 3387.00
16:21:23:502 -> 3127.00
16:21:23:502 -> 3144.00
16:21:23:502 -> 3075.00
16:21:23:502 -> 3241.00
16:21:23:502 -> 3187.00
16:21:23:502 -> 3254.00
16:21:23:502 -> 3463.00
16:21:23:502 -> 3199.00
16:21:23:502 -> 3100.00
16:21:23:502 -> 3346.00
16:21:23:502 -> 3537.00
16:21:23:502 -> 3248.00
16:21:23:502 -> 3230.00
16:21:23:502 -> 3571.00
16:21:23:502 -> 3492.00
16:21:23:502 -> 3308.00
16:21:23:502 -> 3421.00
16:21:23:502 -> 3372.00
16:21:23:502 -> 2967.00
16:21:23:502 -> 2895.00
16:21:23:502 -> 3129.00
16:21:23:502 -> 3198.00
16:21:23:502 -> 3109.00
16:21:23:502 -> 3308.00
16:21:23:502 -> 3596.00
16:21:23:502 -> 3405.00
16:21:23:502 -> 3080.00
16:21:23:502 -> 2962.00
16:21:23:502 -> 3129.00
16:21:23:502 -> 3011.00
16:21:23:504 -> 2955.00
16:21:23:504 -> 3064.00
16:21:23:504 -> 3250.00
16:21:23:504 -> 3689.00
16:21:23:504 -> 3477.00
16:21:23:504 -> 3104.00
16:21:23:504 -> 3555.00
16:21:23:504 -> 3460.00
16:21:23:504 -> 3021.00
16:21:23:504 -> 2908.00
16:21:23:504 -> 3097.00
16:21:23:504 -> 3416.00
16:21:23:504 -> 3740.00
16:21:23:504 -> 3599.00
16:21:23:504 -> 3227.00
16:21:23:504 -> 3290.00
16:21:23:504 -> 3270.00
16:21:23:504 -> 3244.00
16:21:23:504 -> 3554.00
16:21:23:504 -> 3324.00
16:21:23:504 -> 3245.00
16:21:23:504 -> 3079.00
16:21:23:504 -> 3123.00
16:21:23:512 -> 3074.00
16:21:23:512 -> 2835.00
16:21:23:512 -> 2911.00
16:21:23:512 -> 3173.00
16:21:23:512 -> 2997.00
16:21:23:512 -> 3420.00
16:21:23:512 -> 3863.00
16:21:23:513 -> 3640.00
16:21:23:514 -> 3293.00
16:21:23:516 -> 3296.00
16:21:23:517 -> 3231.00
16:21:23:519 -> 3217.00
16:21:23:519 -> 3160.00
16:21:23:520 -> 3247.00
16:21:23:521 -> 3361.00
16:21:23:522 -> 3244.00
16:21:23:523 -> 2855.00
16:21:23:525 -> 3404.00
16:21:23:526 -> 3479.00
16:21:23:527 -> 3382.00
16:21:23:530 -> 3209.00
16:21:23:530 -> 2952.00
16:21:23:531 -> 3198.00
16:21:23:531 -> 3572.00
16:21:23:533 -> 3343.00
16:21:23:535 -> 3021.00
16:21:23:536 -> 3190.00
16:21:23:536 -> 3339.00
16:21:23:545 -> 3514.00
16:21:23:545 -> 3640.00
16:21:23:545 -> 3376.00
16:21:23:545 -> 3290.00
16:21:23:545 -> 3016.00
16:21:23:545 -> 2564.00
16:21:23:549 -> 2939.00
16:21:23:549 -> 3434.00
16:21:23:549 -> 3505.00
16:21:23:549 -> 3647.00
16:21:23:550 -> 3777.00
16:21:23:551 -> 3567.00
16:21:23:562 -> 3318.00
16:21:23:562 -> 3181.00
16:21:23:562 -> 3502.00
16:21:23:562 -> 3309.00
16:21:23:562 -> 2969.00
16:21:23:562 -> 3019.00
16:21:23:562 -> 3141.00
16:21:23:562 -> 3326.00
16:21:23:562 -> 3736.00
16:21:23:574 -> 3352.00
16:21:23:574 -> 2991.00
16:21:23:574 -> 2888.00
16:21:23:574 -> 3022.00
16:21:23:574 -> 3045.00
16:21:23:574 -> 3028.00
16:21:23:574 -> 2977.00
16:21:23:574 -> 3151.00
16:21:23:574 -> 3125.00
16:21:23:574 -> 3645.00
16:21:23:577 -> 3870.00
16:21:23:577 -> 3906.00
16:21:23:577 -> 3725.00
16:21:23:579 -> 3168.00
16:21:23:579 -> 2960.00
16:21:23:581 -> 3199.00
16:21:23:581 -> 3353.00
16:21:23:583 -> 3249.00
16:21:23:584 -> 2898.00
16:21:23:585 -> 2831.00
16:21:23:586 -> 3413.00
16:21:23:587 -> 3585.00
16:21:23:589 -> 3299.00
16:21:23:590 -> 3612.00
16:21:23:591 -> 3851.00
16:21:23:593 -> 2794.00
16:21:23:593 -> 2658.00
16:21:23:595 -> 3044.00
16:21:23:596 -> 2675.00
16:21:23:597 -> 3242.00
16:21:23:598 -> 3739.00
16:21:23:599 -> 3803.00
16:21:23:601 -> 3719.00
16:21:23:602 -> 3692.00
16:21:23:603 -> 3424.00
16:21:23:604 -> 3084.00
16:21:23:605 -> 2747.00
16:21:23:607 -> 3916.00
16:21:23:608 -> 3679.00
16:21:23:609 -> 3502.00
16:21:23:610 -> 3055.00
16:21:23:611 -> 2481.00
16:21:23:612 -> 3294.00
16:21:23:614 -> 3401.00
16:21:23:615 -> 3012.00
16:21:23:616 -> 3502.00
16:21:23:617 -> 3143.00
16:21:23:618 -> 3326.00
16:21:23:620 -> 3186.00
16:21:23:621 -> 3767.00
16:21:23:622 -> 3228.00
16:21:23:623 -> 3319.00
16:21:23:625 -> 3565.00
16:21:23:626 -> 3441.00
16:21:23:627 -> 3265.00
16:21:23:630 -> 3414.00
16:21:23:630 -> 3614.00
16:21:23:639 -> 3469.00
16:21:23:639 -> 3111.00
16:21:23:650 -> 2903.00
16:21:23:650 -> 3092.00
16:21:23:650 -> 3590.00
16:21:23:650 -> 3808.00
16:21:23:650 -> 3291.00
16:21:23:650 -> 3399.00
16:21:23:650 -> 3507.00
16:21:23:650 -> 3243.00
16:21:23:650 -> 2875.00
16:21:23:650 -> 2717.00
16:21:23:650 -> 3131.00
16:21:23:650 -> 3113.00
16:21:23:650 -> 3450.00
16:21:23:650 -> 3084.00
16:21:23:651 -> 3406.00
16:21:23:651 -> 3420.00
16:21:23:652 -> 3328.00
16:21:23:653 -> 3188.00
16:21:23:654 -> 3228.00
16:21:23:667 -> 3290.00
16:21:23:667 -> 2988.00
16:21:23:667 -> 3633.00
16:21:23:667 -> 3801.00
16:21:23:667 -> 3955.00
16:21:23:667 -> 3482.00
16:21:23:667 -> 3380.00
16:21:23:667 -> 3235.00
16:21:23:667 -> 2968.00
16:21:23:667 -> 2703.00
16:21:23:667 -> 2633.00
16:21:23:669 -> 2749.00
16:21:23:670 -> 3422.00
16:21:23:671 -> 3570.00
16:21:23:672 -> 4021.00
16:21:23:673 -> 3833.00
16:21:23:674 -> 3329.00
16:21:23:676 -> 3351.00
16:21:23:677 -> 3321.00
16:21:23:678 -> 2946.00
16:21:23:679 -> 3027.00
16:21:23:680 -> 3567.00
16:21:23:681 -> 3613.00
16:21:23:683 -> 3111.00
16:21:23:684 -> 2618.00
16:21:23:685 -> 2909.00
16:21:23:686 -> 3238.00
16:21:23:687 -> 3004.00
16:21:23:689 -> 3143.00
16:21:23:690 -> 3643.00
16:21:23:691 -> 3802.00
16:21:23:692 -> 3081.00
16:21:23:693 -> 2909.00
16:21:23:695 -> 3031.00
16:21:23:696 -> 3419.00
16:21:23:697 -> 3646.00
16:21:23:698 -> 3521.00
16:21:23:699 -> 3151.00
16:21:23:701 -> 3190.00
16:21:23:702 -> 3150.00
16:21:23:705 -> 3456.00
16:21:23:705 -> 3490.00
16:21:23:706 -> 3603.00
16:21:23:706 -> 3517.00
16:21:23:708 -> 3234.00
16:21:23:709 -> 2934.00
16:21:23:710 -> 3320.00
16:21:23:711 -> 3757.00
16:21:23:713 -> 3559.00
16:21:23:717 -> 3291.00
16:21:23:717 -> 3320.00
16:21:23:717 -> 3226.00
16:21:23:719 -> 2915.00
16:21:23:719 -> 3048.00
16:21:23:721 -> 2959.00
16:21:23:721 -> 3018.00
16:21:23:723 -> 2938.00
16:21:23:723 -> 3036.00
16:21:23:724 -> 3845.00
16:21:23:726 -> 3988.00
16:21:23:727 -> 3467.00
16:21:23:728 -> 3356.00
16:21:23:732 -> 3283.00
16:21:23:747 -> 3083.00
16:21:23:747 -> 2800.00
16:21:23:747 -> 2796.00
16:21:23:747 -> 2750.00
16:21:23:747 -> 2713.00
16:21:23:747 -> 3118.00
16:21:23:747 -> 3606.00
16:21:23:755 -> 3504.00
16:21:23:755 -> 3855.00
16:21:23:755 -> 3966.00
16:21:23:755 -> 3777.00
16:21:23:755 -> 3583.00
16:21:23:755 -> 3108.00
16:21:23:755 -> 3113.00
16:21:23:755 -> 3163.00
16:21:23:755 -> 3323.00
16:21:23:755 -> 3335.00
16:21:23:755 -> 3217.00
16:21:23:755 -> 3283.00
16:21:23:755 -> 3167.00
16:21:23:757 -> 3149.00
16:21:23:757 -> 2892.00
16:21:23:757 -> 3429.00
16:21:23:758 -> 2992.00
16:21:23:759 -> 3476.00
16:21:23:760 -> 3870.00
16:21:23:761 -> 3750.00
16:21:23:762 -> 3296.00
16:21:23:764 -> 3210.00
16:21:23:765 -> 3260.00
16:21:23:767 -> 3155.00
16:21:23:768 -> 3291.00
16:21:23:769 -> 3273.00
16:21:23:773 -> 3125.00
16:21:23:773 -> 3452.00
16:21:23:773 -> 3241.00
16:21:23:773 -> 3410.00
16:21:23:777 -> 3705.00
16:21:23:777 -> 3438.00
16:21:23:777 -> 3178.00
16:21:23:778 -> 3032.00
16:21:23:779 -> 3209.00
16:21:23:780 -> 3198.00
16:21:23:781 -> 3263.00
16:21:23:785 -> 3530.00
16:21:23:785 -> 3279.00
16:21:23:786 -> 3062.00
16:21:23:787 -> 3006.00
16:21:23:787 -> 3213.00
16:21:23:789 -> 3043.00
16:21:23:790 -> 2832.00
16:21:23:791 -> 3562.00
16:21:23:792 -> 3528.00
16:21:23:793 -> 3488.00
16:21:23:795 -> 3231.00
16:21:23:796 -> 3238.00
16:21:23:797 -> 3212.00
16:21:23:798 -> 3196.00
16:21:23:799 -> 3543.00
16:21:23:800 -> 3368.00
16:21:23:802 -> 3154.00
16:21:23:803 -> 3363.00
16:21:23:804 -> 3103.00
16:21:23:805 -> 3217.00
16:21:23:806 -> 3623.00
16:21:23:809 -> 3654.00
16:21:23:811 -> 3605.00
16:21:23:811 -> 3226.00
16:21:23:812 -> 3153.00
16:21:23:814 -> 3048.00
16:21:23:814 -> 2382.00
16:21:23:815 -> 2929.00
16:21:23:816 -> 3453.00
16:21:23:817 -> 3867.00
16:21:23:818 -> 3033.00
16:21:23:820 -> 3053.00
16:21:23:821 -> 3195.00
16:21:23:822 -> 3515.00
16:21:23:823 -> 3797.00
16:21:23:825 -> 3793.00
16:21:23:827 -> 3655.00
16:21:23:828 -> 3362.00
16:21:23:829 -> 3202.00
16:21:23:862 -> 3360.00
16:21:23:862 -> 2989.00
16:21:23:862 -> 3290.00
16:21:23:862 -> 3152.00
16:21:23:862 -> 3060.00
16:21:23:862 -> 3639.00
16:21:23:862 -> 3571.00
16:21:23:862 -> 3189.00
16:21:23:862 -> 3046.00
16:21:23:862 -> 3271.00
16:21:23:862 -> 3081.00
16:21:23:862 -> 2917.00
16:21:23:862 -> 3209.00
16:21:23:862 -> 3013.00
16:21:23:862 -> 2707.00
16:21:23:862 -> 3055.00
16:21:23:862 -> 3364.00
16:21:23:862 -> 3703.00
16:21:23:862 -> 3685.00
16:21:23:862 -> 3572.00
16:21:23:862 -> 3781.00
16:21:23:862 -> 3730.00
16:21:23:862 -> 3561.00
16:21:23:862 -> 3626.00
16:21:23:862 -> 3503.00
16:21:23:862 -> 3359.00
16:21:23:862 -> 3317.00
16:21:23:862 -> 3219.00
16:21:23:867 -> 3157.00
16:21:23:867 -> 3337.00
16:21:23:867 -> 3186.00
16:21:23:867 -> 3123.00
16:21:23:867 -> 3351.00
16:21:23:881 -> 3363.00
16:21:23:881 -> 2915.00
16:21:23:881 -> 3245.00
16:21:23:881 -> 3647.00
16:21:23:881 -> 3361.00
16:21:23:881 -> 3053.00
16:21:23:881 -> 2951.00
16:21:23:881 -> 3019.00
16:21:23:881 -> 2702.00
16:21:23:881 -> 3335.00
16:21:23:881 -> 3670.00
16:21:23:898 -> 3730.00
16:21:23:898 -> 3607.00
16:21:23:898 -> 3378.00
16:21:23:898 -> 3387.00
16:21:23:898 -> 3283.00
16:21:23:898 -> 3401.00
16:21:23:898 -> 3469.00
16:21:23:898 -> 3443.00
16:21:23:898 -> 3497.00
16:21:23:898 -> 3432.00
16:21:23:898 -> 3405.00
16:21:23:898 -> 3229.00
16:21:23:898 -> 3206.00
16:21:23:898 -> 2970.00
16:21:23:923 -> 3227.00
16:21:23:923 -> 3297.00
16:21:23:923 -> 3267.00
16:21:23:923 -> 2877.00
16:21:23:923 -> 3134.00
16:21:23:923 -> 3516.00
16:21:23:923 -> 3682.00
16:21:23:923 -> 3279.00
16:21:23:923 -> 3244.00
16:21:23:923 -> 3638.00
16:21:23:923 -> 3733.00
16:21:23:923 -> 3482.00
16:21:23:923 -> 3301.00
16:21:23:936 -> 3240.00
16:21:23:936 -> 3284.00
16:21:23:936 -> 3257.00
16:21:23:936 -> 3214.00
16:21:23:936 -> 2983.00
16:21:23:936 -> 2914.00
16:21:23:936 -> 3544.00
16:21:23:936 -> 3650.00
16:21:23:936 -> 3490.00
16:21:23:936 -> 3622.00
16:21:23:936 -> 3489.00
16:21:23:936 -> 3478.00
16:21:23:936 -> 3383.00
16:21:23:936 -> 3326.00
16:21:23:936 -> 3288.00
16:21:23:936 -> 3301.00
16:21:23:936 -> 3242.00
16:21:23:936 -> 2958.00
16:21:23:936 -> 2886.00
16:21:24:000 -> 2935.00
16:21:24:000 -> 2767.00
16:21:24:000 -> 2968.00
16:21:24:000 -> 3289.00
16:21:24:000 -> 3232.00
16:21:24:000 -> 3466.00
16:21:24:000 -> 3928.00
16:21:24:000 -> 3966.00
16:21:24:000 -> 3430.00
16:21:24:000 -> 3347.00
16:21:24:000 -> 3398.00
16:21:24:000 -> 3330.00
16:21:24:000 -> 3515.00
16:21:24:000 -> 3522.00
16:21:24:000 -> 3402.00
16:21:24:000 -> 3409.00
16:21:24:000 -> 3180.00
16:21:24:000 -> 3170.00
16:21:24:000 -> 3191.00
16:21:24:000 -> 2984.00
16:21:24:000 -> 3360.00
16:21:24:000 -> 3220.00
16:21:24:000 -> 2908.00
16:21:24:000 -> 3363.00
16:21:24:000 -> 3692.00
16:21:24:000 -> 3687.00
16:21:24:000 -> 3579.00
16:21:24:000 -> 3605.00
16:21:24:000 -> 3552.00
16:21:24:000 -> 3182.00
16:21:24:000 -> 3531.00
16:21:24:036 -> 3420.00
16:21:24:036 -> 3373.00
16:21:24:036 -> 3167.00
16:21:24:036 -> 3046.00
16:21:24:036 -> 3291.00
16:21:24:036 -> 3622.00
16:21:24:036 -> 3492.00
16:21:24:036 -> 3480.00
16:21:24:036 -> 3565.00
16:21:24:036 -> 3525.00
16:21:24:036 -> 3362.00
16:21:24:036 -> 3332.00
16:21:24:036 -> 3258.00
16:21:24:036 -> 3162.00
16:21:24:036 -> 3170.00
16:21:24:036 -> 3029.00
16:21:24:036 -> 3163.00
16:21:24:036 -> 3326.00
16:21:24:036 -> 3299.00
16:21:24:036 -> 2913.00
16:21:24:036 -> 2655.00
16:21:24:036 -> 3748.00
16:21:24:036 -> 3900.00
16:21:24:036 -> 3488.00
16:21:24:036 -> 3191.00
16:21:24:036 -> 2903.00
16:21:24:036 -> 2791.00
16:21:24:036 -> 3528.00
16:21:24:036 -> 3931.00
16:21:24:036 -> 3815.00
16:21:24:036 -> 3520.00
16:21:24:036 -> 3548.00
16:21:24:036 -> 3705.00
16:21:24:036 -> 3503.00
16:21:24:036 -> 3425.00
16:21:24:036 -> 3489.00
16:21:24:036 -> 3436.00
16:21:24:036 -> 3281.00
16:21:24:036 -> 3209.00
16:21:24:036 -> 3264.00
16:21:24:036 -> 3266.00
16:21:24:036 -> 3377.00
16:21:24:036 -> 3435.00
16:21:24:036 -> 3394.00
16:21:24:053 -> 3377.00
16:21:24:053 -> 3371.00
16:21:24:053 -> 3328.00
16:21:24:053 -> 3425.00
16:21:24:053 -> 3483.00
16:21:24:053 -> 3426.00
16:21:24:053 -> 3341.00
16:21:24:053 -> 3307.00
16:21:24:053 -> 3344.00
16:21:24:053 -> 3385.00
16:21:24:053 -> 3433.00
16:21:24:053 -> 3418.00
16:21:24:053 -> 3323.00
16:21:24:053 -> 3313.00
16:21:24:053 -> 3315.00
16:21:24:053 -> 3293.00
16:21:24:053 -> 3382.00
16:21:24:053 -> 3395.00
16:21:24:053 -> 3221.00
16:21:24:053 -> 3302.00
16:21:24:053 -> 3186.00
16:21:24:053 -> 3158.00
16:21:24:053 -> 3252.00
16:21:24:053 -> 3385.00
16:21:24:087 -> 3387.00
16:21:24:087 -> 3525.00
16:21:24:087 -> 3568.00
16:21:24:087 -> 3515.00
16:21:24:087 -> 3523.00
16:21:24:087 -> 3395.00
16:21:24:087 -> 3242.00
16:21:24:087 -> 3283.00
16:21:24:087 -> 3278.00
16:21:24:087 -> 3280.00
16:21:24:087 -> 3301.00
16:21:24:087 -> 3185.00
16:21:24:087 -> 3366.00
16:21:24:087 -> 3351.00
16:21:24:087 -> 3345.00
16:21:24:087 -> 3191.00
16:21:24:087 -> 3151.00
16:21:24:087 -> 3262.00
16:21:24:087 -> 3431.00
16:21:24:087 -> 3456.00
16:21:24:087 -> 3435.00
16:21:24:087 -> 3388.00
16:21:24:087 -> 3448.00
16:21:24:087 -> 3434.00
16:21:24:087 -> 3538.00
16:21:24:087 -> 3435.00
16:21:24:087 -> 3468.00
16:21:24:087 -> 3464.00
16:21:24:109 -> 3400.00
16:21:24:109 -> 3378.00
16:21:24:109 -> 3346.00
16:21:24:109 -> 3317.00
16:21:24:109 -> 3366.00
16:21:24:109 -> 3371.00
16:21:24:109 -> 3390.00
16:21:24:109 -> 3381.00
16:21:24:109 -> 3423.00
16:21:24:109 -> 3417.00
16:21:24:109 -> 3399.00
16:21:24:109 -> 3376.00
16:21:24:109 -> 3352.00
16:21:24:109 -> 3336.00
16:21:24:109 -> 3311.00
16:21:24:109 -> 3309.00
16:21:24:109 -> 3313.00
16:21:24:109 -> 3323.00
16:21:24:109 -> 3329.00
16:21:24:114 -> 3364.00
16:21:24:114 -> 3359.00
16:21:24:114 -> 3345.00
16:21:24:114 -> 3335.00
16:21:24:127 -> 3331.00
16:21:24:127 -> 3386.00
16:21:24:127 -> 3381.00
16:21:24:127 -> 3397.00
16:21:24:127 -> 3397.00
16:21:24:127 -> 3389.00
16:21:24:127 -> 3351.00
16:21:24:134 -> 3381.00
16:21:24:134 -> 3359.00
16:21:24:134 -> 3379.00
16:21:24:134 -> 3350.00
16:21:24:134 -> 3385.00
16:21:24:134 -> 3372.00
16:21:24:134 -> 3365.00
16:21:24:134 -> 3389.00
16:21:24:134 -> 3401.00
16:21:24:134 -> 3412.00
16:21:24:141 -> 3421.00
16:21:24:141 -> 3435.00
16:21:24:141 -> 3416.00
16:21:24:141 -> 3418.00
16:21:24:141 -> 3417.00
16:21:24:141 -> 3385.00
16:21:24:144 -> 3410.00
16:21:24:144 -> 3328.00
16:21:24:150 -> 3302.00
16:21:24:150 -> 3315.00
16:21:24:150 -> 3343.00
16:21:24:150 -> 3311.00
16:21:24:150 -> 3317.00
16:21:24:156 -> 3335.00
16:21:24:156 -> 3364.00
16:21:24:156 -> 3374.00
16:21:24:156 -> 3359.00
16:21:24:156 -> 3368.00
16:21:24:175 -> 3418.00
16:21:24:175 -> 3402.00
16:21:24:175 -> 3422.00
16:21:24:175 -> 3407.00
16:21:24:175 -> 3410.00
16:21:24:175 -> 3382.00
16:21:24:175 -> 3364.00
16:21:24:175 -> 3311.00
16:21:24:175 -> 3345.00
16:21:24:175 -> 3353.00
16:21:24:175 -> 3366.00
16:21:24:175 -> 3372.00
16:21:24:175 -> 3429.00
16:21:24:175 -> 3368.00
16:21:24:175 -> 3400.00
16:21:24:175 -> 3398.00
16:21:24:177 -> 3416.00
16:21:24:177 -> 3411.00
16:21:24:179 -> 3420.00
16:21:24:198 -> 3419.00
16:21:24:198 -> 3411.00
16:21:24:198 -> 3370.00
16:21:24:198 -> 3389.00
16:21:24:198 -> 3365.00
16:21:24:198 -> 3342.00
16:21:24:198 -> 3372.00
16:21:24:198 -> 3368.00
16:21:24:198 -> 3353.00
16:21:24:198 -> 3375.00
16:21:24:198 -> 3359.00
16:21:24:198 -> 3388.00
16:21:24:198 -> 3383.00
16:21:24:198 -> 3398.00
16:21:24:198 -> 3469.00
16:21:24:198 -> 3416.00
16:21:24:201 -> 3409.00
16:21:24:201 -> 3418.00
16:21:24:201 -> 3393.00
16:21:24:202 -> 3387.00
16:21:24:203 -> 3355.00
16:21:24:204 -> 3337.00
16:21:24:205 -> 3317.00
16:21:24:210 -> 3358.00
16:21:24:210 -> 3345.00
16:21:24:210 -> 3364.00
16:21:24:211 -> 3367.00
16:21:24:211 -> 3370.00
16:21:24:212 -> 3389.00
16:21:24:213 -> 3391.00
16:21:24:215 -> 3434.00
16:21:24:216 -> 3443.00
16:21:24:220 -> 3426.00
16:21:24:220 -> 3402.00
16:21:24:220 -> 3427.00
16:21:24:221 -> 3389.00
16:21:24:222 -> 3384.00
16:21:24:223 -> 3378.00
16:21:24:227 -> 3334.00
16:21:24:227 -> 3295.00
16:21:24:227 -> 3353.00
16:21:24:229 -> 3338.00
16:21:24:229 -> 3363.00
16:21:24:230 -> 3365.00
16:21:24:232 -> 3368.00
16:21:24:233 -> 3387.00
16:21:24:234 -> 3422.00
16:21:24:235 -> 3460.00
16:21:24:236 -> 3463.00
16:21:24:237 -> 3438.00
16:21:24:239 -> 3423.00
16:21:24:240 -> 3415.00
16:21:24:244 -> 3405.00
16:21:24:244 -> 3392.00
16:21:24:244 -> 3386.00
16:21:24:248 -> 3345.00
16:21:24:248 -> 3321.00
16:21:24:248 -> 3352.00
16:21:24:248 -> 3344.00
16:21:24:249 -> 3380.00
16:21:24:250 -> 3391.00
16:21:24:252 -> 3411.00
16:21:24:253 -> 3367.00
16:21:24:254 -> 3403.00
16:21:24:255 -> 3412.00
16:21:24:256 -> 3408.00
16:21:24:258 -> 3429.00
16:21:24:259 -> 3433.00
16:21:24:260 -> 3419.00
16:21:24:261 -> 3369.00
16:21:24:262 -> 3361.00
16:21:24:263 -> 3358.00
16:21:24:265 -> 3359.00
16:21:24:266 -> 3362.00
16:21:24:267 -> 3361.00
16:21:24:268 -> 3375.00
16:21:24:269 -> 3390.00
16:21:24:271 -> 3389.00
16:21:24:272 -> 3371.00
16:21:24:273 -> 3384.00
16:21:24:274 -> 3430.00
16:21:24:276 -> 3452.00
16:21:24:277 -> 3453.00
16:21:24:278 -> 3445.00
16:21:24:279 -> 3432.00
16:21:24:280 -> 3415.00
16:21:24:281 -> 3407.00
16:21:24:282 -> 3390.00
16:21:24:284 -> 3374.00
16:21:24:285 -> 3340.00
16:21:24:286 -> 3329.00
16:21:24:287 -> 3359.00
16:21:24:291 -> 3423.00
16:21:24:292 -> 3397.00
16:21:24:297 -> 3448.00
16:21:24:298 -> 3449.00
16:21:24:289 -> 3373.00
16:21:24:295 -> 3423.00
16:21:24:295 -> 3396.00
16:21:24:295 -> 3436.00
16:21:24:296 -> 3419.00
16:21:24:300 -> 3435.00
16:21:24:300 -> 3424.00
16:21:24:302 -> 3413.00
16:21:24:303 -> 3391.00
16:21:24:307 -> 3361.00
16:21:24:309 -> 3408.00
16:21:24:309 -> 3386.00
16:21:24:309 -> 3372.00
16:21:24:309 -> 3397.00
16:21:24:310 -> 3374.00
16:21:24:312 -> 3390.00
16:21:24:313 -> 3409.00
16:21:24:314 -> 3433.00
16:21:24:315 -> 3484.00
16:21:24:317 -> 3509.00
16:21:24:317 -> 3448.00
16:21:24:323 -> 3454.00
16:21:24:323 -> 3445.00
16:21:24:323 -> 3434.00
16:21:24:323 -> 3415.00
16:21:24:323 -> 3406.00
16:21:24:326 -> 3400.00
16:21:24:326 -> 3409.00
16:21:24:337 -> 3388.00
16:21:24:337 -> 3403.00
16:21:24:337 -> 3402.00
16:21:24:337 -> 3410.00
16:21:24:337 -> 3425.00
16:21:24:337 -> 3424.00
16:21:24:337 -> 3453.00
16:21:24:337 -> 3501.00
16:21:24:337 -> 3451.00
16:21:24:343 -> 3463.00
16:21:24:343 -> 3458.00
16:21:24:343 -> 3432.00
16:21:24:343 -> 3450.00
16:21:24:343 -> 3440.00
16:21:24:344 -> 3399.00
16:21:24:344 -> 3364.00
16:21:24:346 -> 3380.00
16:21:24:347 -> 3396.00
16:21:24:348 -> 3417.00
16:21:24:349 -> 3417.00
16:21:24:350 -> 3422.00
16:21:24:352 -> 3426.00
16:21:24:353 -> 3416.00
16:21:24:354 -> 3411.00
16:21:24:356 -> 3448.00
16:21:24:356 -> 3455.00
16:21:24:358 -> 3494.00
16:21:24:359 -> 3466.00
16:21:24:360 -> 3452.00
16:21:24:361 -> 3414.00
16:21:24:362 -> 3428.00
16:21:24:363 -> 3379.00
16:21:24:365 -> 3380.00
16:21:24:366 -> 3399.00
16:21:24:367 -> 3401.00
16:21:24:368 -> 3387.00
16:21:24:369 -> 3415.00
16:21:24:370 -> 3426.00
16:21:24:372 -> 3436.00
16:21:24:374 -> 3418.00
16:21:24:375 -> 3470.00
16:21:24:376 -> 3441.00
16:21:24:376 -> 3469.00
16:21:24:378 -> 3469.00
16:21:24:379 -> 3466.00
16:21:24:380 -> 3449.00
16:21:24:381 -> 3441.00
16:21:24:383 -> 3425.00
16:21:24:384 -> 3413.00
16:21:24:385 -> 3357.00
16:21:24:386 -> 3357.00
16:21:24:387 -> 3385.00
16:21:24:388 -> 3446.00
16:21:24:390 -> 3434.00
16:21:24:392 -> 3434.00
16:21:24:393 -> 3453.00
16:21:24:409 -> 3455.00
16:21:24:409 -> 3463.00
16:21:24:409 -> 3465.00
16:21:24:409 -> 3497.00
16:21:24:409 -> 3475.00
16:21:24:409 -> 3469.00
16:21:24:409 -> 3468.00
16:21:24:409 -> 3438.00
16:21:24:409 -> 3420.00
16:21:24:409 -> 3396.00
16:21:24:409 -> 3390.00
16:21:24:409 -> 3416.00
16:21:24:409 -> 3419.00
16:21:24:409 -> 3421.00
16:21:24:414 -> 3437.00
16:21:24:414 -> 3456.00
16:21:24:414 -> 3442.00
16:21:24:414 -> 3438.00
16:21:24:415 -> 3428.00
16:21:24:417 -> 3462.00
16:21:24:417 -> 3485.00
16:21:24:418 -> 3508.00
16:21:24:419 -> 3475.00
16:21:24:421 -> 3452.00
16:21:24:422 -> 3433.00
16:21:24:423 -> 3425.00
16:21:24:424 -> 3393.00
16:21:24:425 -> 3379.00
16:21:24:427 -> 3395.00
16:21:24:428 -> 3433.00
16:21:24:429 -> 3426.00
16:21:24:430 -> 3437.00
16:21:24:431 -> 3453.00
16:21:24:433 -> 3456.00
16:21:24:434 -> 3462.00
16:21:24:435 -> 3485.00
16:21:24:436 -> 3532.00
16:21:24:437 -> 3495.00
16:21:24:438 -> 3499.00
16:21:24:440 -> 3477.00
16:21:24:441 -> 3416.00
16:21:24:442 -> 3456.00
16:21:24:443 -> 3441.00
16:21:24:445 -> 3403.00
16:21:24:446 -> 3424.00
16:21:24:447 -> 3428.00
16:21:24:449 -> 3437.00
16:21:24:449 -> 3436.00
16:21:24:451 -> 3450.00
16:21:24:451 -> 3471.00
16:21:24:453 -> 3471.00
16:21:24:454 -> 3479.00
16:21:24:455 -> 3459.00
16:21:24:456 -> 3475.00
16:21:24:458 -> 3497.00
16:21:24:459 -> 3498.00
16:21:24:460 -> 3474.00
16:21:24:461 -> 3476.00
16:21:24:462 -> 3468.00
16:21:24:463 -> 3472.00
16:21:24:465 -> 3407.00
16:21:24:469 -> 3385.00
16:21:24:469 -> 3400.00
16:21:24:471 -> 3443.00
16:21:24:471 -> 3455.00
16:21:24:472 -> 3455.00
16:21:24:472 -> 3462.00
16:21:24:478 -> 3489.00
16:21:24:478 -> 3465.00
16:21:24:478 -> 3519.00
16:21:24:489 -> 3503.00
16:21:24:489 -> 3496.00
16:21:24:489 -> 3496.00
16:21:24:489 -> 3483.00
16:21:24:489 -> 3448.00
16:21:24:489 -> 3439.00
16:21:24:489 -> 3426.00
16:21:24:489 -> 3417.00
16:21:24:489 -> 3424.00
16:21:24:489 -> 3437.00
16:21:24:489 -> 3437.00
16:21:24:490 -> 3451.00
16:21:24:585 -> 3449.00
16:21:24:585 -> 3483.00
16:21:24:585 -> 3471.00
16:21:24:585 -> 3502.00
16:21:24:585 -> 3460.00
16:21:24:585 -> 3504.00
16:21:24:585 -> 3511.00
16:21:24:585 -> 3506.00
16:21:24:585 -> 3494.00
16:21:24:585 -> 3504.00
16:21:24:585 -> 3447.00
16:21:24:585 -> 3411.00
16:21:24:585 -> 3428.00
16:21:24:585 -> 3431.00
16:21:24:585 -> 3449.00
16:21:24:585 -> 3440.00
16:21:24:585 -> 3446.00
16:21:24:585 -> 3473.00
16:21:24:585 -> 3479.00
16:21:24:585 -> 3486.00
16:21:24:585 -> 3496.00
16:21:24:585 -> 3483.00
16:21:24:585 -> 3489.00
16:21:24:585 -> 3526.00
16:21:24:585 -> 3503.00
16:21:24:585 -> 3493.00
16:21:24:585 -> 3480.00
16:21:24:585 -> 3459.00
16:21:24:585 -> 3439.00
16:21:24:585 -> 3389.00
16:21:24:585 -> 3425.00
16:21:24:642 -> 3432.00
16:21:24:642 -> 3453.00
16:21:24:642 -> 3453.00
16:21:24:642 -> 3456.00
16:21:24:642 -> 3489.00
16:21:24:642 -> 3479.00
16:21:24:642 -> 3527.00
16:21:24:642 -> 3540.00
16:21:24:642 -> 3526.00
16:21:24:642 -> 3512.00
16:21:24:642 -> 3487.00
16:21:24:642 -> 3484.00
16:21:24:642 -> 3474.00
16:21:24:642 -> 3458.00
16:21:24:642 -> 3429.00
16:21:24:642 -> 3454.00
16:21:24:642 -> 3475.00
16:21:24:642 -> 3452.00
16:21:24:642 -> 3445.00
16:21:24:642 -> 3446.00
16:21:24:642 -> 3499.00
16:21:24:642 -> 3497.00
16:21:24:642 -> 3489.00
16:21:24:642 -> 3536.00
16:21:24:642 -> 3514.00
16:21:24:642 -> 3522.00
16:21:24:642 -> 3509.00
16:21:24:642 -> 3493.00
16:21:24:642 -> 3471.00
16:21:24:642 -> 3476.00
16:21:24:642 -> 3456.00
16:21:24:642 -> 3452.00
16:21:24:642 -> 3468.00
16:21:24:642 -> 3433.00
16:21:24:642 -> 3454.00
16:21:24:642 -> 3450.00
16:21:24:642 -> 3476.00
16:21:24:642 -> 3489.00
16:21:24:642 -> 3473.00
16:21:24:642 -> 3514.00
16:21:24:642 -> 3517.00
16:21:24:642 -> 3527.00
16:21:24:642 -> 3526.00
16:21:24:642 -> 3503.00
16:21:24:642 -> 3487.00
16:21:24:642 -> 3442.00
16:21:24:642 -> 3470.00
16:21:24:642 -> 3457.00
16:21:24:642 -> 3411.00
16:21:24:642 -> 3423.00
16:21:24:642 -> 3436.00
16:21:24:642 -> 3458.00
16:21:24:642 -> 3479.00
16:21:24:642 -> 3477.00
16:21:24:642 -> 3492.00
16:21:24:642 -> 3515.00
16:21:24:642 -> 3509.00
16:21:24:642 -> 3557.00
16:21:24:642 -> 3542.00
16:21:24:642 -> 3524.00
16:21:24:642 -> 3506.00
16:21:24:642 -> 3525.00
16:21:24:642 -> 3494.00
16:21:24:642 -> 3488.00
16:21:24:642 -> 3474.00
16:21:24:659 -> 3416.00
16:21:24:659 -> 3429.00
16:21:24:659 -> 3447.00
16:21:24:659 -> 3468.00
16:21:24:659 -> 3452.00
16:21:24:659 -> 3488.00
16:21:24:659 -> 3484.00
16:21:24:659 -> 3488.00
16:21:24:659 -> 3473.00
16:21:24:659 -> 3501.00
16:21:24:659 -> 3512.00
16:21:24:659 -> 3526.00
16:21:24:659 -> 3521.00
16:21:24:659 -> 3501.00
16:21:24:659 -> 3503.00
16:21:24:659 -> 3477.00
16:21:24:659 -> 3443.00
16:21:24:659 -> 3422.00
16:21:24:659 -> 3433.00
16:21:24:659 -> 3456.00
16:21:24:659 -> 3475.00
16:21:24:659 -> 3469.00
16:21:24:659 -> 3470.00
16:21:24:659 -> 3487.00
16:21:24:659 -> 3494.00
16:21:24:659 -> 3486.00
16:21:24:659 -> 3546.00
16:21:24:659 -> 3531.00
16:21:24:659 -> 3520.00
16:21:24:659 -> 3510.00
16:21:24:659 -> 3496.00
16:21:24:659 -> 3457.00
16:21:24:659 -> 3455.00
16:21:24:659 -> 3418.00
16:21:24:659 -> 3415.00
16:21:24:659 -> 3436.00
16:21:24:659 -> 3453.00
16:21:24:659 -> 3473.00
16:21:24:659 -> 3478.00
16:21:24:659 -> 3465.00
16:21:24:659 -> 3484.00
16:21:24:659 -> 3498.00
16:21:24:659 -> 3504.00
16:21:24:659 -> 3482.00
16:21:24:659 -> 3510.00
16:21:24:659 -> 3515.00
16:21:24:676 -> 3519.00
16:21:24:676 -> 3501.00
16:21:24:676 -> 3477.00
16:21:24:676 -> 3466.00
16:21:24:676 -> 3441.00
16:21:24:676 -> 3414.00
16:21:24:676 -> 3435.00
16:21:24:676 -> 3440.00
16:21:24:676 -> 3466.00
16:21:24:676 -> 3494.00
16:21:24:676 -> 3494.00
16:21:24:676 -> 3463.00
16:21:24:676 -> 3500.00
16:21:24:676 -> 3529.00
16:21:24:701 -> 3532.00
16:21:24:701 -> 3557.00
16:21:24:701 -> 3530.00
16:21:24:701 -> 3501.00
16:21:24:701 -> 3506.00
16:21:24:701 -> 3473.00
16:21:24:701 -> 3456.00
16:21:24:701 -> 3443.00
16:21:24:701 -> 3458.00
16:21:24:701 -> 3443.00
16:21:24:701 -> 3459.00
16:21:24:701 -> 3479.00
16:21:24:701 -> 3487.00
16:21:24:701 -> 3485.00
16:21:24:701 -> 3494.00
16:21:24:701 -> 3490.00
16:21:24:701 -> 3563.00
16:21:24:701 -> 3561.00
16:21:24:701 -> 3532.00
16:21:24:701 -> 3531.00
16:21:24:701 -> 3520.00
16:21:24:709 -> 3505.00
16:21:24:709 -> 3481.00
16:21:24:709 -> 3464.00
16:21:24:709 -> 3466.00
16:21:24:709 -> 3460.00
16:21:24:709 -> 3457.00
16:21:24:709 -> 3465.00
16:21:24:713 -> 3482.00
16:21:24:713 -> 3481.00
16:21:24:713 -> 3519.00
16:21:24:725 -> 3496.00
16:21:24:725 -> 3524.00
16:21:24:725 -> 3510.00
16:21:24:725 -> 3523.00
16:21:24:725 -> 3521.00
16:21:24:725 -> 3525.00
16:21:24:725 -> 3523.00
16:21:24:725 -> 3483.00
16:21:24:725 -> 3507.00
16:21:24:787 -> 3477.00
16:21:24:787 -> 3487.00
16:21:24:787 -> 3469.00
16:21:24:787 -> 3461.00
16:21:24:787 -> 3463.00
16:21:24:787 -> 3492.00
16:21:24:787 -> 3491.00
16:21:24:787 -> 3516.00
16:21:24:787 -> 3502.00
16:21:24:787 -> 3523.00
16:21:24:787 -> 3532.00
16:21:24:787 -> 3557.00
16:21:24:787 -> 3536.00
16:21:24:787 -> 3521.00
16:21:24:787 -> 3505.00
16:21:24:787 -> 3477.00
16:21:24:787 -> 3498.00
16:21:24:787 -> 3442.00
16:21:24:787 -> 3464.00
16:21:24:814 -> 3474.00
16:21:24:814 -> 3468.00
16:21:24:814 -> 3459.00
16:21:24:814 -> 3471.00
16:21:24:814 -> 3501.00
16:21:24:814 -> 3495.00
16:21:24:814 -> 3458.00
16:21:24:814 -> 3551.00
16:21:24:814 -> 3588.00
16:21:24:814 -> 3524.00
16:21:24:814 -> 3537.00
16:21:24:814 -> 3519.00
16:21:24:814 -> 3473.00
16:21:24:814 -> 3473.00
16:21:24:814 -> 3453.00
16:21:24:814 -> 3463.00
16:21:24:814 -> 3467.00
16:21:24:814 -> 3469.00
16:21:24:814 -> 3478.00
16:21:24:814 -> 3479.00
16:21:24:814 -> 3471.00
16:21:24:814 -> 3490.00
16:21:24:814 -> 3493.00
16:21:24:814 -> 3511.00
16:21:24:814 -> 3527.00
16:21:24:814 -> 3535.00
16:21:24:814 -> 3548.00
16:21:24:814 -> 3537.00
16:21:24:814 -> 3513.00
16:21:24:814 -> 3514.00
16:21:24:814 -> 3507.00
16:21:24:814 -> 3471.00
16:21:24:814 -> 3450.00
16:21:24:814 -> 3416.00
16:21:24:814 -> 3437.00
16:21:24:814 -> 3453.00
16:21:24:814 -> 3489.00
16:21:24:814 -> 3496.00
16:21:24:814 -> 3481.00
16:21:24:814 -> 3485.00
16:21:24:814 -> 3496.00
16:21:24:814 -> 3565.00
16:21:24:814 -> 3563.00
16:21:24:814 -> 3502.00
16:21:24:814 -> 3524.00
16:21:24:819 -> 3512.00
16:21:24:819 -> 3502.00
16:21:24:819 -> 3483.00
16:21:24:819 -> 3458.00
16:21:24:819 -> 3464.00
16:21:24:819 -> 3463.00
16:21:24:819 -> 3466.00
16:21:24:819 -> 3481.00
16:21:24:819 -> 3488.00
16:21:24:819 -> 3496.00
16:21:24:819 -> 3518.00
16:21:24:819 -> 3528.00
16:21:24:819 -> 3510.00
16:21:24:819 -> 3524.00
16:21:24:819 -> 3557.00
16:21:24:819 -> 3512.00
16:21:24:823 -> 3524.00
16:21:24:823 -> 3540.00
16:21:24:823 -> 3496.00
16:21:24:823 -> 3495.00
16:21:24:831 -> 3461.00
16:21:24:831 -> 3416.00
16:21:24:831 -> 3472.00
16:21:24:831 -> 3472.00
16:21:24:831 -> 3479.00
16:21:24:831 -> 3499.00
16:21:24:833 -> 3502.00
16:21:24:833 -> 3497.00
16:21:24:840 -> 3507.00
16:21:24:840 -> 3482.00
16:21:24:840 -> 3499.00
16:21:24:840 -> 3550.00
16:21:24:840 -> 3545.00
16:21:24:840 -> 3529.00
16:21:24:842 -> 3521.00
16:21:24:842 -> 3544.00
16:21:24:843 -> 3466.00
16:21:24:853 -> 3456.00
16:21:24:853 -> 3443.00
16:21:24:853 -> 3466.00
16:21:24:853 -> 3492.00
16:21:24:853 -> 3486.00
16:21:24:853 -> 3489.00
16:21:24:853 -> 3473.00
16:21:24:865 -> 3533.00
16:21:24:865 -> 3544.00
16:21:24:865 -> 3555.00
16:21:24:865 -> 3580.00
16:21:24:865 -> 3558.00
16:21:24:865 -> 3543.00
16:21:24:865 -> 3524.00
16:21:24:865 -> 3553.00
16:21:24:865 -> 3491.00
16:21:24:865 -> 3495.00
16:21:24:865 -> 3431.00
16:21:24:869 -> 3470.00
16:21:24:869 -> 3448.00
16:21:24:869 -> 3474.00
16:21:24:870 -> 3484.00
16:21:24:871 -> 3486.00
16:21:24:878 -> 3528.00
16:21:24:878 -> 3530.00
16:21:24:878 -> 3537.00
16:21:24:878 -> 3580.00
16:21:24:878 -> 3577.00
16:21:24:886 -> 3542.00
16:21:24:886 -> 3559.00
16:21:24:886 -> 3530.00
16:21:24:886 -> 3523.00
16:21:24:886 -> 3519.00
16:21:24:886 -> 3492.00
16:21:24:886 -> 3431.00
16:21:24:886 -> 3409.00
16:21:24:894 -> 3448.00
16:21:24:894 -> 3477.00
16:21:24:894 -> 3488.00
16:21:24:894 -> 3494.00
16:21:24:894 -> 3507.00
16:21:24:894 -> 3512.00
16:21:24:899 -> 3559.00
16:21:24:899 -> 3555.00
16:21:24:899 -> 3556.00
16:21:24:899 -> 3538.00
16:21:24:907 -> 3535.00
16:21:24:907 -> 3525.00
16:21:24:907 -> 3526.00
16:21:24:907 -> 3480.00
16:21:24:907 -> 3451.00
16:21:24:907 -> 3436.00
16:21:24:907 -> 3442.00
16:21:24:921 -> 3461.00
16:21:24:921 -> 3491.00
16:21:24:921 -> 3497.00
16:21:24:921 -> 3502.00
16:21:24:921 -> 3475.00
16:21:24:921 -> 3495.00
16:21:24:921 -> 3506.00
16:21:24:921 -> 3553.00
16:21:24:921 -> 3556.00
16:21:24:921 -> 3543.00
16:21:24:921 -> 3543.00
16:21:24:921 -> 3535.00
16:21:24:925 -> 3516.00
16:21:24:925 -> 3473.00
16:21:24:925 -> 3441.00
16:21:24:925 -> 3448.00
16:21:24:928 -> 3418.00
16:21:24:928 -> 3484.00
16:21:24:942 -> 3481.00
16:21:24:942 -> 3490.00
16:21:24:942 -> 3503.00
16:21:24:942 -> 3512.00
16:21:24:942 -> 3530.00
16:21:24:942 -> 3535.00
16:21:24:942 -> 3552.00
16:21:24:942 -> 3529.00
16:21:24:942 -> 3571.00
16:21:24:942 -> 3529.00
16:21:24:942 -> 3529.00
16:21:24:947 -> 3504.00
16:21:24:947 -> 3484.00
16:21:24:947 -> 3480.00
16:21:24:947 -> 3449.00
16:21:24:947 -> 3461.00
16:21:24:950 -> 3491.00
16:21:24:950 -> 3481.00
16:21:24:953 -> 3503.00
16:21:24:953 -> 3529.00
16:21:24:953 -> 3525.00
16:21:24:954 -> 3533.00
16:21:24:955 -> 3538.00
16:21:24:956 -> 3523.00
16:21:24:961 -> 3517.00
16:21:24:961 -> 3543.00
16:21:24:961 -> 3541.00
16:21:24:961 -> 3529.00
16:21:24:962 -> 3519.00
16:21:24:963 -> 3498.00
16:21:24:965 -> 3458.00
16:21:24:966 -> 3468.00
16:21:24:967 -> 3487.00
16:21:24:968 -> 3467.00
16:21:24:969 -> 3485.00
16:21:24:970 -> 3483.00
16:21:24:972 -> 3460.00
16:21:24:973 -> 3533.00
16:21:24:974 -> 3536.00
16:21:24:975 -> 3556.00
16:21:24:976 -> 3571.00
16:21:24:978 -> 3539.00
16:21:24:979 -> 3552.00
16:21:24:980 -> 3547.00
16:21:24:981 -> 3547.00
16:21:24:982 -> 3511.00
16:21:24:983 -> 3497.00
16:21:24:985 -> 3458.00
16:21:24:986 -> 3458.00
16:21:24:987 -> 3412.00
16:21:24:988 -> 3487.00
16:21:24:989 -> 3489.00
16:21:24:991 -> 3497.00
16:21:24:992 -> 3507.00
16:21:24:993 -> 3475.00
16:21:24:994 -> 3498.00
16:21:24:995 -> 3529.00
16:21:24:997 -> 3560.00
16:21:24:998 -> 3553.00
16:21:24:999 -> 3543.00
16:21:25:000 -> 3531.00
16:21:25:001 -> 3505.00
16:21:25:003 -> 3469.00
16:21:25:004 -> 3473.00
16:21:25:005 -> 3452.00
16:21:25:006 -> 3484.00
16:21:25:007 -> 3472.00
16:21:25:009 -> 3491.00
16:21:25:010 -> 3494.00
16:21:25:011 -> 3512.00
16:21:25:012 -> 3489.00
16:21:25:013 -> 3521.00
16:21:25:015 -> 3535.00
16:21:25:018 -> 3588.00
16:21:25:025 -> 3558.00
16:21:25:025 -> 3552.00
16:21:25:025 -> 3546.00
16:21:25:025 -> 3551.00
16:21:25:025 -> 3464.00
16:21:25:025 -> 3492.00
16:21:25:025 -> 3477.00
16:21:25:028 -> 3456.00
16:21:25:028 -> 3468.00
16:21:25:028 -> 3489.00
16:21:25:029 -> 3475.00
16:21:25:030 -> 3483.00
16:21:25:031 -> 3516.00
16:21:25:034 -> 3530.00
16:21:25:034 -> 3529.00
16:21:25:041 -> 3591.00
16:21:25:041 -> 3554.00
16:21:25:041 -> 3524.00
16:21:25:041 -> 3556.00
16:21:25:041 -> 3542.00
16:21:25:042 -> 3534.00
16:21:25:044 -> 3522.00
16:21:25:044 -> 3516.00
16:21:25:044 -> 3466.00
16:21:25:045 -> 3469.00
16:21:25:047 -> 3464.00
16:21:25:048 -> 3466.00
16:21:25:049 -> 3501.00
16:21:25:050 -> 3485.00
16:21:25:051 -> 3508.00
16:21:25:053 -> 3519.00
16:21:25:054 -> 3554.00
16:21:25:055 -> 3532.00
16:21:25:056 -> 3539.00
16:21:25:057 -> 3532.00
16:21:25:059 -> 3551.00
16:21:25:060 -> 3541.00
16:21:25:061 -> 3513.00
16:21:25:062 -> 3508.00
16:21:25:063 -> 3501.00
16:21:25:064 -> 3470.00
16:21:25:066 -> 3430.00
16:21:25:067 -> 3459.00
16:21:25:068 -> 3497.00
16:21:25:069 -> 3495.00
16:21:25:070 -> 3504.00
16:21:25:072 -> 3497.00
16:21:25:073 -> 3540.00
16:21:25:074 -> 3549.00
16:21:25:075 -> 3460.00
16:21:25:076 -> 3568.00
16:21:25:078 -> 3542.00
16:21:25:132 -> 3535.00
16:21:25:132 -> 3535.00
16:21:25:132 -> 3505.00
16:21:25:132 -> 3495.00
16:21:25:132 -> 3468.00
16:21:25:132 -> 3475.00
16:21:25:132 -> 3509.00
16:21:25:132 -> 3462.00
16:21:25:140 -> 3555.00
16:21:25:140 -> 3496.00
16:21:25:140 -> 3495.00
16:21:25:140 -> 3497.00
16:21:25:140 -> 3552.00
16:21:25:140 -> 3524.00
16:21:25:140 -> 3570.00
16:21:25:140 -> 3554.00
16:21:25:140 -> 3552.00
16:21:25:140 -> 3541.00
16:21:25:140 -> 3536.00
16:21:25:140 -> 3496.00
16:21:25:140 -> 3454.00
16:21:25:140 -> 3467.00
16:21:25:140 -> 3510.00
16:21:25:140 -> 3533.00
16:21:25:140 -> 3472.00
16:21:25:140 -> 3489.00
16:21:25:140 -> 3534.00
16:21:25:140 -> 3505.00
16:21:25:140 -> 3538.00
16:21:25:140 -> 3534.00
16:21:25:140 -> 3534.00
16:21:25:140 -> 3546.00
16:21:25:140 -> 3489.00
16:21:25:140 -> 3569.00
16:21:25:140 -> 3562.00
16:21:25:140 -> 3528.00
16:21:25:140 -> 3537.00
16:21:25:140 -> 3500.00
16:21:25:140 -> 3473.00
16:21:25:140 -> 3471.00
16:21:25:140 -> 3445.00
16:21:25:140 -> 3485.00
16:21:25:140 -> 3494.00
16:21:25:140 -> 3512.00
16:21:25:140 -> 3506.00
16:21:25:140 -> 3514.00
16:21:25:140 -> 3519.00
16:21:25:140 -> 3539.00
16:21:25:140 -> 3521.00
16:21:25:140 -> 3546.00
16:21:25:140 -> 3517.00
16:21:25:140 -> 3545.00
16:21:25:158 -> 3531.00
16:21:25:158 -> 3539.00
16:21:25:158 -> 3518.00
16:21:25:158 -> 3471.00
16:21:25:158 -> 3455.00
16:21:25:158 -> 3494.00
16:21:25:158 -> 3444.00
16:21:25:158 -> 3517.00
16:21:25:158 -> 3503.00
16:21:25:158 -> 3538.00
16:21:25:158 -> 3508.00
16:21:25:158 -> 3519.00
16:21:25:158 -> 3567.00
16:21:25:158 -> 3570.00
16:21:25:158 -> 3552.00
16:21:25:162 -> 3558.00
16:21:25:162 -> 3535.00
16:21:25:162 -> 3529.00
16:21:25:163 -> 3500.00
16:21:25:163 -> 3478.00
16:21:25:165 -> 3409.00
16:21:25:166 -> 3477.00
16:21:25:167 -> 3487.00
16:21:25:168 -> 3487.00
16:21:25:169 -> 3429.00
16:21:25:171 -> 3517.00
16:21:25:172 -> 3472.00
16:21:25:173 -> 3482.00
16:21:25:174 -> 3544.00
16:21:25:175 -> 3593.00
16:21:25:176 -> 3559.00
16:21:25:178 -> 3559.00
16:21:25:179 -> 3559.00
16:21:25:180 -> 3528.00
16:21:25:181 -> 3497.00
16:21:25:182 -> 3511.00
16:21:25:184 -> 3485.00
16:21:25:185 -> 3485.00
16:21:25:186 -> 3476.00
16:21:25:187 -> 3474.00
16:21:25:188 -> 3508.00
16:21:25:189 -> 3494.00
16:21:25:191 -> 3504.00
16:21:25:192 -> 3519.00
16:21:25:193 -> 3516.00
16:21:25:194 -> 3542.00
16:21:25:195 -> 3557.00
16:21:25:197 -> 3541.00
16:21:25:198 -> 3538.00
16:21:25:199 -> 3552.00
16:21:25:201 -> 3528.00
16:21:25:202 -> 3558.00
16:21:25:206 -> 3518.00
16:21:25:206 -> 3493.00
16:21:25:265 -> 3456.00
16:21:25:265 -> 3451.00
16:21:25:265 -> 3482.00
16:21:25:265 -> 3486.00
16:21:25:265 -> 3495.00
16:21:25:265 -> 3515.00
16:21:25:265 -> 3507.00
16:21:25:265 -> 3525.00
16:21:25:265 -> 3515.00
16:21:25:265 -> 3526.00
16:21:25:265 -> 3510.00
16:21:25:265 -> 3558.00
16:21:25:265 -> 3549.00
16:21:25:265 -> 3527.00
16:21:25:265 -> 3536.00
16:21:25:265 -> 3508.00
16:21:25:265 -> 3481.00
16:21:25:265 -> 3425.00
16:21:25:265 -> 3463.00
16:21:25:265 -> 3478.00
16:21:25:265 -> 3496.00
16:21:25:265 -> 3517.00
16:21:25:265 -> 3514.00
16:21:25:265 -> 3496.00
16:21:25:265 -> 3522.00
16:21:25:265 -> 3472.00
16:21:25:265 -> 3537.00
16:21:25:265 -> 3534.00
16:21:25:265 -> 3565.00
16:21:25:265 -> 3534.00
16:21:25:265 -> 3526.00
16:21:25:265 -> 3538.00
16:21:25:265 -> 3488.00
16:21:25:265 -> 3457.00
16:21:25:265 -> 3425.00
16:21:25:265 -> 3454.00
16:21:25:265 -> 3472.00
16:21:25:265 -> 3494.00
16:21:25:265 -> 3504.00
16:21:25:265 -> 3515.00
16:21:25:265 -> 3512.00
16:21:25:265 -> 3512.00
16:21:25:265 -> 3573.00
16:21:25:265 -> 3559.00
16:21:25:265 -> 3556.00
16:21:25:299 -> 3559.00
16:21:25:299 -> 3532.00
16:21:25:299 -> 3535.00
16:21:25:299 -> 3500.00
16:21:25:299 -> 3470.00
16:21:25:299 -> 3470.00
16:21:25:299 -> 3486.00
16:21:25:299 -> 3492.00
16:21:25:299 -> 3479.00
16:21:25:299 -> 3492.00
16:21:25:299 -> 3511.00
16:21:25:299 -> 3497.00
16:21:25:299 -> 3499.00
16:21:25:299 -> 3551.00
16:21:25:299 -> 3561.00
16:21:25:299 -> 3551.00
16:21:25:299 -> 3550.00
16:21:25:299 -> 3558.00
16:21:25:299 -> 3529.00
16:21:25:299 -> 3504.00
16:21:25:299 -> 3522.00
16:21:25:299 -> 3515.00
16:21:25:299 -> 3458.00
16:21:25:299 -> 3445.00
16:21:25:299 -> 3454.00
16:21:25:299 -> 3464.00
16:21:25:299 -> 3511.00
16:21:25:299 -> 3503.00
16:21:25:299 -> 3503.00
16:21:25:299 -> 3530.00
16:21:25:299 -> 3552.00
16:21:25:299 -> 3540.00
16:21:25:299 -> 3550.00
16:21:25:299 -> 3554.00
16:21:25:310 -> 3543.00
16:21:25:310 -> 3546.00
16:21:25:310 -> 3534.00
16:21:25:310 -> 3518.00
16:21:25:310 -> 3466.00
16:21:25:310 -> 3446.00
16:21:25:310 -> 3478.00
16:21:25:310 -> 3488.00
16:21:25:310 -> 3503.00
16:21:25:310 -> 3508.00
16:21:25:344 -> 3513.00
16:21:25:344 -> 3493.00
16:21:25:344 -> 3522.00
16:21:25:344 -> 3554.00
16:21:25:344 -> 3591.00
16:21:25:344 -> 3549.00
16:21:25:344 -> 3547.00
16:21:25:344 -> 3552.00
16:21:25:344 -> 3545.00
16:21:25:344 -> 3512.00
16:21:25:344 -> 3492.00
16:21:25:344 -> 3499.00
16:21:25:344 -> 3492.00
16:21:25:344 -> 3490.00
16:21:25:344 -> 3499.00
16:21:25:344 -> 3509.00
16:21:25:344 -> 3512.00
16:21:25:344 -> 3511.00
16:21:25:344 -> 3480.00
16:21:25:344 -> 3534.00
16:21:25:344 -> 3558.00
16:21:25:344 -> 3594.00
16:21:25:344 -> 3555.00
16:21:25:344 -> 3567.00
16:21:25:344 -> 3542.00
16:21:25:344 -> 3549.00
16:21:25:344 -> 3494.00
16:21:25:344 -> 3521.00
16:21:25:349 -> 3458.00
16:21:25:349 -> 3432.00
16:21:25:349 -> 3471.00
16:21:25:349 -> 3495.00
16:21:25:349 -> 3499.00
16:21:25:359 -> 3508.00
16:21:25:359 -> 3522.00
16:21:25:359 -> 3522.00
16:21:25:359 -> 3538.00
16:21:25:359 -> 3569.00
16:21:25:359 -> 3592.00
16:21:25:359 -> 3544.00
16:21:25:359 -> 3552.00
16:21:25:387 -> 3564.00
16:21:25:387 -> 3526.00
16:21:25:387 -> 3512.00
16:21:25:387 -> 3492.00
16:21:25:387 -> 3475.00
16:21:25:387 -> 3494.00
16:21:25:387 -> 3478.00
16:21:25:387 -> 3499.00
16:21:25:387 -> 3512.00
16:21:25:387 -> 3498.00
16:21:25:387 -> 3484.00
16:21:25:387 -> 3521.00
16:21:25:387 -> 3549.00
16:21:25:387 -> 3546.00
16:21:25:395 -> 3539.00
16:21:25:395 -> 3552.00
16:21:25:395 -> 3546.00
16:21:25:395 -> 3571.00
16:21:25:395 -> 3529.00
16:21:25:395 -> 3532.00
16:21:25:395 -> 3526.00
16:21:25:395 -> 3464.00
16:21:25:395 -> 3449.00
16:21:25:395 -> 3469.00
16:21:25:395 -> 3489.00
16:21:25:395 -> 3495.00
16:21:25:395 -> 3507.00
16:21:25:395 -> 3518.00
16:21:25:395 -> 3510.00
16:21:25:395 -> 3526.00
16:21:25:395 -> 3530.00
16:21:25:397 -> 3564.00
16:21:25:400 -> 3565.00
16:21:25:400 -> 3549.00
16:21:25:400 -> 3561.00
16:21:25:401 -> 3548.00
16:21:25:403 -> 3521.00
16:21:25:404 -> 3491.00
16:21:25:405 -> 3431.00
16:21:25:406 -> 3436.00
16:21:25:407 -> 3473.00
16:21:25:409 -> 3500.00
16:21:25:410 -> 3491.00
16:21:25:411 -> 3504.00
16:21:25:412 -> 3502.00
16:21:25:413 -> 3512.00
16:21:25:415 -> 3521.00
16:21:25:416 -> 3565.00
16:21:25:417 -> 3581.00
16:21:25:418 -> 3562.00
16:21:25:419 -> 3561.00
16:21:25:420 -> 3541.00
16:21:25:423 -> 3495.00
16:21:25:423 -> 3523.00
16:21:25:424 -> 3515.00
16:21:25:425 -> 3485.00
16:21:25:427 -> 3484.00
16:21:25:428 -> 3495.00
16:21:25:429 -> 3493.00
16:21:25:431 -> 3507.00
16:21:25:444 -> 3520.00
16:21:25:444 -> 3519.00
16:21:25:444 -> 3533.00
16:21:25:444 -> 3552.00
16:21:25:444 -> 3559.00
16:21:25:444 -> 3570.00
16:21:25:444 -> 3565.00
16:21:25:444 -> 3556.00
16:21:25:444 -> 3539.00
16:21:25:444 -> 3534.00
16:21:25:444 -> 3505.00
16:21:25:445 -> 3494.00
16:21:25:446 -> 3475.00
16:21:25:447 -> 3468.00
16:21:25:448 -> 3507.00
16:21:25:449 -> 3521.00
16:21:25:450 -> 3518.00
16:21:25:452 -> 3515.00
16:21:25:453 -> 3532.00
16:21:25:454 -> 3522.00
16:21:25:455 -> 3520.00
16:21:25:456 -> 3529.00
16:21:25:457 -> 3532.00
16:21:25:459 -> 3575.00
16:21:25:460 -> 3552.00
16:21:25:461 -> 3538.00
16:21:25:463 -> 3543.00
16:21:25:464 -> 3510.00
16:21:25:465 -> 3480.00
16:21:25:466 -> 3459.00
16:21:25:467 -> 3481.00
16:21:25:468 -> 3489.00
16:21:25:469 -> 3512.00
16:21:25:470 -> 3506.00
16:21:25:472 -> 3537.00
16:21:25:473 -> 3535.00
16:21:25:474 -> 3508.00
16:21:25:475 -> 3530.00
16:21:25:476 -> 3547.00
16:21:25:478 -> 3557.00
16:21:25:479 -> 3557.00
16:21:25:480 -> 3537.00
16:21:25:481 -> 3518.00
16:21:25:482 -> 3526.00
16:21:25:483 -> 3492.00
16:21:25:485 -> 3468.00
16:21:25:486 -> 3440.00
16:21:25:487 -> 3445.00
16:21:25:488 -> 3493.00
16:21:25:489 -> 3503.00
16:21:25:491 -> 3518.00
16:21:25:492 -> 3523.00
16:21:25:493 -> 3520.00
16:21:25:494 -> 3543.00
16:21:25:495 -> 3598.00
16:21:25:497 -> 3557.00
16:21:25:498 -> 3559.00
16:21:25:499 -> 3554.00
16:21:25:500 -> 3565.00
16:21:25:501 -> 3518.00
16:21:25:503 -> 3519.00
16:21:25:504 -> 3487.00
16:21:25:505 -> 3444.00
16:21:25:506 -> 3456.00
16:21:25:507 -> 3481.00
16:21:25:509 -> 3495.00
16:21:25:510 -> 3507.00
16:21:25:511 -> 3497.00
16:21:25:512 -> 3500.00
16:21:25:513 -> 3520.00
16:21:25:517 -> 3544.00
16:21:25:535 -> 3558.00
16:21:25:535 -> 3567.00
16:21:25:535 -> 3558.00
16:21:25:535 -> 3561.00
16:21:25:535 -> 3535.00
16:21:25:535 -> 3533.00
16:21:25:535 -> 3492.00
16:21:25:535 -> 3481.00
16:21:25:535 -> 3452.00
16:21:25:535 -> 3465.00
16:21:25:535 -> 3495.00
16:21:25:535 -> 3502.00
16:21:25:535 -> 3502.00
16:21:25:535 -> 3507.00
16:21:25:535 -> 3533.00
16:21:25:535 -> 3536.00
16:21:25:535 -> 3556.00
16:21:25:541 -> 3435.00
16:21:25:541 -> 3555.00
16:21:25:541 -> 3545.00
16:21:25:541 -> 3555.00
16:21:25:542 -> 3529.00
16:21:25:542 -> 3531.00
16:21:25:544 -> 3509.00
16:21:25:544 -> 3504.00
16:21:25:545 -> 3470.00
16:21:25:547 -> 3456.00
16:21:25:548 -> 3489.00
16:21:25:549 -> 3498.00
16:21:25:550 -> 3516.00
16:21:25:551 -> 3523.00
16:21:25:553 -> 3513.00
16:21:25:554 -> 3538.00
16:21:25:555 -> 3568.00
16:21:25:556 -> 3565.00
16:21:25:557 -> 3567.00
16:21:25:559 -> 3557.00
16:21:25:560 -> 3550.00
16:21:25:561 -> 3532.00
16:21:25:562 -> 3526.00
16:21:25:563 -> 3517.00
16:21:25:565 -> 3464.00
16:21:25:566 -> 3493.00
16:21:25:567 -> 3467.00
16:21:25:568 -> 3495.00
16:21:25:569 -> 3502.00
16:21:25:570 -> 3513.00
16:21:25:572 -> 3539.00
16:21:25:573 -> 3521.00
16:21:25:574 -> 3491.00
16:21:25:575 -> 3513.00
16:21:25:576 -> 3546.00
16:21:25:578 -> 3575.00
16:21:25:579 -> 3565.00
16:21:25:580 -> 3546.00
16:21:25:581 -> 3523.00
16:21:25:582 -> 3529.00
16:21:25:583 -> 3506.00
16:21:25:585 -> 3456.00
16:21:25:586 -> 3438.00
16:21:25:587 -> 3468.00
16:21:25:589 -> 3495.00
16:21:25:591 -> 3502.00
16:21:25:591 -> 3506.00
16:21:25:604 -> 3511.00
16:21:25:604 -> 3495.00
16:21:25:604 -> 3517.00
16:21:25:604 -> 3559.00
16:21:25:604 -> 3583.00
16:21:25:604 -> 3576.00
16:21:25:604 -> 3573.00
16:21:25:604 -> 3538.00
16:21:25:604 -> 3501.00
16:21:25:604 -> 3515.00
16:21:25:604 -> 3492.00
16:21:25:609 -> 3466.00
16:21:25:609 -> 3493.00
16:21:25:609 -> 3474.00
16:21:25:609 -> 3499.00
16:21:25:611 -> 3493.00
16:21:25:611 -> 3512.00
16:21:25:646 -> 3512.00
16:21:25:646 -> 3528.00
16:21:25:646 -> 3545.00
16:21:25:646 -> 3561.00
16:21:25:646 -> 3569.00
16:21:25:646 -> 3531.00
16:21:25:646 -> 3548.00
16:21:25:646 -> 3537.00
16:21:25:646 -> 3536.00
16:21:25:646 -> 3509.00
16:21:25:646 -> 3494.00
16:21:25:646 -> 3476.00
16:21:25:646 -> 3421.00
16:21:25:646 -> 3511.00
16:21:25:646 -> 3505.00
16:21:25:646 -> 3510.00
16:21:25:646 -> 3515.00
16:21:25:646 -> 3541.00
16:21:25:646 -> 3538.00
16:21:25:646 -> 3547.00
16:21:25:646 -> 3526.00
16:21:25:658 -> 3566.00
16:21:25:658 -> 3558.00
16:21:25:658 -> 3513.00
16:21:25:658 -> 3568.00
16:21:25:658 -> 3517.00
16:21:25:658 -> 3507.00
16:21:25:658 -> 3498.00
16:21:25:658 -> 3490.00
16:21:25:658 -> 3453.00
16:21:25:660 -> 3497.00
16:21:25:660 -> 3491.00
16:21:25:660 -> 3498.00
16:21:25:660 -> 3525.00
16:21:25:660 -> 3520.00
16:21:25:660 -> 3536.00
16:21:25:660 -> 3547.00
16:21:25:660 -> 3542.00
16:21:25:660 -> 3539.00
16:21:25:660 -> 3573.00
16:21:25:660 -> 3551.00
16:21:25:661 -> 3538.00
16:21:25:662 -> 3513.00
16:21:25:663 -> 3497.00
16:21:25:664 -> 3462.00
16:21:25:666 -> 3481.00
16:21:25:667 -> 3464.00
16:21:25:668 -> 3491.00
16:21:25:669 -> 3505.00
16:21:25:670 -> 3524.00
16:21:25:672 -> 3523.00
16:21:25:673 -> 3540.00
16:21:25:674 -> 3532.00
16:21:25:675 -> 3544.00
16:21:25:676 -> 3594.00
16:21:25:678 -> 3550.00
16:21:25:679 -> 3562.00
16:21:25:680 -> 3576.00
16:21:25:681 -> 3542.00
16:21:25:682 -> 3506.00
16:21:25:683 -> 3520.00
16:21:25:685 -> 3486.00
16:21:25:686 -> 3458.00
16:21:25:687 -> 3489.00
16:21:25:688 -> 3490.00
16:21:25:690 -> 3496.00
16:21:25:691 -> 3507.00
16:21:25:692 -> 3527.00
16:21:25:693 -> 3543.00
16:21:25:694 -> 3554.00
16:21:25:695 -> 3538.00
16:21:25:697 -> 3551.00
16:21:25:698 -> 3544.00
16:21:25:699 -> 3559.00
16:21:25:700 -> 3546.00
16:21:25:701 -> 3524.00
16:21:25:703 -> 3508.00
16:21:25:707 -> 3476.00
16:21:25:712 -> 3475.00
16:21:25:712 -> 3463.00
16:21:25:712 -> 3489.00
16:21:25:712 -> 3504.00
16:21:25:712 -> 3500.00
16:21:25:712 -> 3521.00
16:21:25:714 -> 3501.00
16:21:25:714 -> 3517.00
16:21:25:726 -> 3538.00
16:21:25:726 -> 3537.00
16:21:25:726 -> 3550.00
16:21:25:726 -> 3554.00
16:21:25:726 -> 3561.00
16:21:25:726 -> 3546.00
16:21:25:726 -> 3513.00
16:21:25:740 -> 3511.00
16:21:25:740 -> 3480.00
16:21:25:740 -> 3451.00
16:21:25:740 -> 3497.00
16:21:25:740 -> 3478.00
16:21:25:740 -> 3493.00
16:21:25:740 -> 3511.00
16:21:25:740 -> 3516.00
16:21:25:740 -> 3531.00
16:21:25:740 -> 3565.00
16:21:25:740 -> 3608.00
16:21:25:740 -> 3514.00
16:21:25:740 -> 3550.00
16:21:25:740 -> 3557.00
16:21:25:742 -> 3542.00
16:21:25:742 -> 3543.00
16:21:25:742 -> 3517.00
16:21:25:744 -> 3534.00
16:21:25:744 -> 3527.00
16:21:25:745 -> 3483.00
16:21:25:747 -> 3460.00
16:21:25:751 -> 3482.00
16:21:25:751 -> 3472.00
16:21:25:751 -> 3504.00
16:21:25:759 -> 3522.00
16:21:25:759 -> 3558.00
16:21:25:759 -> 3550.00
16:21:25:759 -> 3552.00
16:21:25:759 -> 3518.00
16:21:25:759 -> 3582.00
16:21:25:759 -> 3575.00
16:21:25:799 -> 3552.00
16:21:25:799 -> 3547.00
16:21:25:799 -> 3519.00
16:21:25:799 -> 3505.00
16:21:25:799 -> 3486.00
16:21:25:799 -> 3441.00
16:21:25:799 -> 3469.00
16:21:25:799 -> 3496.00
16:21:25:799 -> 3476.00
16:21:25:799 -> 3510.00
16:21:25:799 -> 3535.00
16:21:25:799 -> 3531.00
16:21:25:799 -> 3539.00
16:21:25:799 -> 3561.00
16:21:25:799 -> 3565.00
16:21:25:799 -> 3566.00
16:21:25:799 -> 3545.00
16:21:25:799 -> 3544.00
16:21:25:799 -> 3535.00
16:21:25:799 -> 3548.00
16:21:25:799 -> 3508.00
16:21:25:799 -> 3489.00
16:21:25:799 -> 3505.00
16:21:25:799 -> 3472.00
16:21:25:799 -> 3528.00
16:21:25:799 -> 3503.00
16:21:25:799 -> 3511.00
16:21:25:799 -> 3501.00
16:21:25:799 -> 3532.00
16:21:25:799 -> 3565.00
16:21:25:799 -> 3569.00
16:21:25:799 -> 3578.00
16:21:25:799 -> 3573.00
16:21:25:844 -> 3550.00
16:21:25:844 -> 3547.00
16:21:25:844 -> 3510.00
16:21:25:844 -> 3536.00
16:21:25:844 -> 3509.00
16:21:25:844 -> 3497.00
16:21:25:844 -> 3512.00
16:21:25:844 -> 3477.00
16:21:25:844 -> 3493.00
16:21:25:844 -> 3504.00
16:21:25:844 -> 3524.00
16:21:25:844 -> 3533.00
16:21:25:844 -> 3548.00
16:21:25:844 -> 3540.00
16:21:25:844 -> 3534.00
16:21:25:844 -> 3544.00
16:21:25:844 -> 3555.00
16:21:25:844 -> 3552.00
16:21:25:844 -> 3531.00
16:21:25:844 -> 3499.00
16:21:25:844 -> 3507.00
16:21:25:844 -> 3517.00
16:21:25:844 -> 3449.00
16:21:25:844 -> 3450.00
16:21:25:844 -> 3476.00
16:21:25:844 -> 3511.00
16:21:25:844 -> 3510.00
16:21:25:844 -> 3526.00
16:21:25:844 -> 3484.00
16:21:25:844 -> 3517.00
16:21:25:844 -> 3559.00
16:21:25:844 -> 3571.00
16:21:25:844 -> 3564.00
16:21:25:844 -> 3567.00
16:21:25:844 -> 3569.00
16:21:25:844 -> 3535.00
16:21:25:844 -> 3559.00
16:21:25:844 -> 3530.00
16:21:25:867 -> 3512.00
16:21:25:867 -> 3457.00
16:21:25:867 -> 3455.00
16:21:25:867 -> 3474.00
16:21:25:867 -> 3502.00
16:21:25:867 -> 3504.00
16:21:25:867 -> 3600.00
16:21:25:867 -> 3529.00
16:21:25:867 -> 3542.00
16:21:25:867 -> 3576.00
16:21:25:867 -> 3562.00
16:21:25:867 -> 3567.00
16:21:25:867 -> 3570.00
16:21:25:867 -> 3549.00
16:21:25:867 -> 3539.00
16:21:25:867 -> 3522.00
16:21:25:867 -> 3536.00
16:21:25:867 -> 3494.00
16:21:25:867 -> 3478.00
16:21:25:895 -> 3487.00
16:21:25:895 -> 3486.00
16:21:25:895 -> 3512.00
16:21:25:895 -> 3522.00
16:21:25:895 -> 3530.00
16:21:25:895 -> 3526.00
16:21:25:895 -> 3559.00
16:21:25:895 -> 3526.00
16:21:25:895 -> 3515.00
16:21:25:895 -> 3555.00
16:21:25:895 -> 3573.00
16:21:25:895 -> 3555.00
16:21:25:895 -> 3541.00
16:21:25:895 -> 3534.00
16:21:25:895 -> 3499.00
16:21:25:895 -> 3484.00
16:21:25:895 -> 3490.00
16:21:25:895 -> 3565.00
16:21:25:895 -> 3488.00
16:21:25:895 -> 3521.00
16:21:25:895 -> 3524.00
16:21:25:895 -> 3523.00
16:21:25:895 -> 3506.00
16:21:25:895 -> 3535.00
16:21:25:945 -> 3577.00
16:21:25:945 -> 3596.00
16:21:25:945 -> 3568.00
16:21:25:945 -> 3572.00
16:21:25:945 -> 3555.00
16:21:25:945 -> 3525.00
16:21:25:945 -> 3506.00
16:21:25:945 -> 3500.00
16:21:25:945 -> 3503.00
16:21:25:945 -> 3527.00
16:21:25:945 -> 3483.00
16:21:25:945 -> 3503.00
16:21:25:945 -> 3514.00
16:21:25:945 -> 3512.00
16:21:25:945 -> 3496.00
16:21:25:945 -> 3520.00
16:21:25:945 -> 3586.00
16:21:25:945 -> 3568.00
16:21:25:945 -> 3583.00
16:21:25:945 -> 3577.00
16:21:25:945 -> 3554.00
16:21:25:945 -> 3525.00
16:21:25:945 -> 3531.00
16:21:25:945 -> 3538.00
16:21:25:945 -> 3484.00
16:21:25:945 -> 3514.00
16:21:25:945 -> 3467.00
16:21:25:945 -> 3506.00
16:21:25:945 -> 3462.00
16:21:25:945 -> 3514.00
16:21:25:945 -> 3519.00
16:21:25:945 -> 3545.00
16:21:25:945 -> 3532.00
16:21:25:945 -> 3548.00
16:21:25:945 -> 3561.00
16:21:25:945 -> 3602.00
16:21:25:945 -> 3581.00
16:21:25:945 -> 3559.00
16:21:25:945 -> 3539.00
16:21:25:945 -> 3513.00
16:21:25:945 -> 3505.00
16:21:25:945 -> 3502.00
16:21:25:950 -> 3491.00
16:21:25:950 -> 3514.00
16:21:25:950 -> 3477.00
16:21:25:950 -> 3509.00
16:21:25:996 -> 3519.00
16:21:25:996 -> 3517.00
16:21:25:996 -> 3519.00
16:21:25:996 -> 3538.00
16:21:25:996 -> 3572.00
16:21:25:996 -> 3578.00
16:21:25:996 -> 3590.00
16:21:25:996 -> 3567.00
16:21:25:996 -> 3551.00
16:21:25:996 -> 3551.00
16:21:25:996 -> 3520.00
16:21:25:996 -> 3508.00
16:21:25:996 -> 3467.00
16:21:25:996 -> 3455.00
16:21:25:996 -> 3495.00
16:21:25:996 -> 3492.00
16:21:25:996 -> 3500.00
16:21:25:996 -> 3498.00
16:21:25:996 -> 3516.00
16:21:25:996 -> 3537.00
16:21:25:996 -> 3545.00
16:21:25:996 -> 3546.00
16:21:25:996 -> 3563.00
16:21:25:996 -> 3555.00
16:21:25:996 -> 3567.00
16:21:25:996 -> 3554.00
16:21:26:000 -> 3533.00
16:21:26:000 -> 3501.00
16:21:26:000 -> 3484.00
16:21:26:000 -> 3470.00
16:21:26:000 -> 3484.00
16:21:26:000 -> 3500.00
16:21:26:000 -> 3501.00
16:21:26:000 -> 3511.00
16:21:26:000 -> 3507.00
16:21:26:000 -> 3527.00
16:21:26:000 -> 3537.00
16:21:26:000 -> 3549.00
16:21:26:000 -> 3547.00
16:21:26:000 -> 3559.00
16:21:26:000 -> 3573.00
16:21:26:000 -> 3567.00
16:21:26:017 -> 3559.00
16:21:26:017 -> 3564.00
16:21:26:017 -> 3522.00
16:21:26:017 -> 3529.00
16:21:26:017 -> 3490.00
16:21:26:017 -> 3471.00
16:21:26:017 -> 3483.00
16:21:26:017 -> 3493.00
16:21:26:017 -> 3506.00
16:21:26:017 -> 3508.00
16:21:26:017 -> 3509.00
16:21:26:017 -> 3558.00
16:21:26:017 -> 3543.00
16:21:26:017 -> 3521.00
16:21:26:017 -> 3558.00
16:21:26:020 -> 3573.00
16:21:26:020 -> 3561.00
16:21:26:024 -> 3545.00
16:21:26:024 -> 3547.00
16:21:26:024 -> 3526.00
16:21:26:030 -> 3505.00
16:21:26:030 -> 3466.00
16:21:26:030 -> 3500.00
16:21:26:030 -> 3505.00
16:21:26:030 -> 3514.00
16:21:26:030 -> 3518.00
16:21:26:046 -> 3521.00
16:21:26:046 -> 3545.00
16:21:26:046 -> 3550.00
16:21:26:046 -> 3564.00
16:21:26:046 -> 3593.00
16:21:26:046 -> 3561.00
16:21:26:046 -> 3565.00
16:21:26:046 -> 3546.00
16:21:26:046 -> 3541.00
16:21:26:046 -> 3542.00
16:21:26:050 -> 3516.00
16:21:26:050 -> 3520.00
16:21:26:050 -> 3485.00
16:21:26:050 -> 3467.00
16:21:26:050 -> 3466.00
16:21:26:050 -> 3504.00
16:21:26:054 -> 3505.00
16:21:26:054 -> 3516.00
16:21:26:054 -> 3544.00
16:21:26:054 -> 3567.00
16:21:26:056 -> 3568.00
16:21:26:067 -> 3534.00
16:21:26:067 -> 3548.00
16:21:26:067 -> 3558.00
16:21:26:067 -> 3555.00
16:21:26:067 -> 3542.00
16:21:26:067 -> 3542.00
16:21:26:067 -> 3507.00
16:21:26:067 -> 3476.00
16:21:26:067 -> 3434.00
16:21:26:091 -> 3479.00
16:21:26:091 -> 3483.00
16:21:26:091 -> 3503.00
16:21:26:091 -> 3515.00
16:21:26:091 -> 3536.00
16:21:26:091 -> 3521.00
16:21:26:091 -> 3532.00
16:21:26:091 -> 3561.00
16:21:26:107 -> 3562.00
16:21:26:107 -> 3600.00
16:21:26:107 -> 3571.00
16:21:26:107 -> 3551.00
16:21:26:107 -> 3530.00
16:21:26:107 -> 3531.00
16:21:26:107 -> 3469.00
16:21:26:107 -> 3498.00
16:21:26:107 -> 3479.00
16:21:26:107 -> 3482.00
16:21:26:107 -> 3513.00
16:21:26:107 -> 3509.00
16:21:26:107 -> 3510.00
16:21:26:107 -> 3532.00
16:21:26:107 -> 3555.00
16:21:26:107 -> 3559.00
16:21:26:107 -> 3544.00
16:21:26:107 -> 3529.00
16:21:26:107 -> 3583.00
16:21:26:107 -> 3600.00
16:21:26:107 -> 3551.00
16:21:26:107 -> 3525.00
16:21:26:107 -> 3548.00
16:21:26:107 -> 3506.00
16:21:26:107 -> 3452.00
16:21:26:107 -> 3459.00
16:21:26:119 -> 3473.00
16:21:26:119 -> 3517.00
16:21:26:119 -> 3500.00
16:21:26:119 -> 3522.00
16:21:26:119 -> 3520.00
16:21:26:119 -> 3558.00
16:21:26:119 -> 3542.00
16:21:26:119 -> 3535.00
16:21:26:119 -> 3572.00
16:21:26:119 -> 3487.00
16:21:26:120 -> 3591.00
16:21:26:124 -> 3549.00
16:21:26:124 -> 3560.00
16:21:26:124 -> 3531.00
16:21:26:125 -> 3491.00
16:21:26:138 -> 3452.00
16:21:26:138 -> 3448.00
16:21:26:138 -> 3503.00
16:21:26:138 -> 3498.00
16:21:26:138 -> 3508.00
16:21:26:138 -> 3499.00
16:21:26:138 -> 3566.00
16:21:26:138 -> 3540.00
16:21:26:138 -> 3563.00
16:21:26:138 -> 3568.00
16:21:26:138 -> 3561.00
16:21:26:138 -> 3571.00
16:21:26:140 -> 3565.00
16:21:26:141 -> 3545.00
16:21:26:142 -> 3483.00
16:21:26:143 -> 3483.00
16:21:26:181 -> 3496.00
16:21:26:181 -> 3504.00
16:21:26:181 -> 3523.00
16:21:26:181 -> 3491.00
16:21:26:181 -> 3504.00
16:21:26:181 -> 3516.00
16:21:26:181 -> 3463.00
16:21:26:183 -> 3523.00
16:21:26:183 -> 3538.00
16:21:26:183 -> 3547.00
16:21:26:183 -> 3590.00
16:21:26:183 -> 3572.00
16:21:26:183 -> 3575.00
16:21:26:183 -> 3558.00
16:21:26:183 -> 3528.00
16:21:26:183 -> 3532.00
16:21:26:183 -> 3534.00
16:21:26:183 -> 3493.00
16:21:26:183 -> 3479.00
16:21:26:183 -> 3477.00
16:21:26:183 -> 3502.00
16:21:26:183 -> 3508.00
16:21:26:183 -> 3509.00
16:21:26:183 -> 3532.00
16:21:26:183 -> 3540.00
16:21:26:183 -> 3542.00
16:21:26:183 -> 3554.00
16:21:26:183 -> 3538.00
16:21:26:183 -> 3575.00
16:21:26:183 -> 3567.00
16:21:26:183 -> 3560.00
16:21:26:183 -> 3530.00
16:21:26:183 -> 3536.00
16:21:26:184 -> 3515.00
16:21:26:185 -> 3477.00
16:21:26:186 -> 3469.00
16:21:26:187 -> 3475.00
16:21:26:188 -> 3497.00
16:21:26:192 -> 3505.00
16:21:26:192 -> 3510.00
16:21:26:192 -> 3504.00
16:21:26:193 -> 3509.00
16:21:26:194 -> 3550.00
16:21:26:197 -> 3534.00
16:21:26:197 -> 3602.00
16:21:26:198 -> 3581.00
16:21:26:199 -> 3556.00
16:21:26:200 -> 3550.00
16:21:26:201 -> 3553.00
16:21:26:202 -> 3524.00
16:21:26:204 -> 3512.00
16:21:26:205 -> 3494.00
16:21:26:206 -> 3486.00
16:21:26:207 -> 3482.00
16:21:26:208 -> 3509.00
16:21:26:210 -> 3511.00
16:21:26:211 -> 3509.00
16:21:26:212 -> 3518.00
16:21:26:213 -> 3537.00
16:21:26:214 -> 3560.00
16:21:26:216 -> 3583.00
16:21:26:217 -> 3584.00
16:21:26:218 -> 3565.00
16:21:26:219 -> 3556.00
16:21:26:220 -> 3553.00
16:21:26:221 -> 3536.00
16:21:26:223 -> 3505.00
16:21:26:224 -> 3495.00
16:21:26:225 -> 3438.00
16:21:26:226 -> 3454.00
16:21:26:228 -> 3506.00
16:21:26:229 -> 3498.00
16:21:26:230 -> 3523.00
16:21:26:231 -> 3526.00
16:21:26:232 -> 3533.00
16:21:26:233 -> 3525.00
16:21:26:235 -> 3522.00
16:21:26:236 -> 3554.00
16:21:26:237 -> 3575.00
16:21:26:238 -> 3572.00
16:21:26:239 -> 3554.00
16:21:26:243 -> 3566.00
16:21:26:243 -> 3555.00
16:21:26:243 -> 3539.00
16:21:26:244 -> 3483.00
16:21:26:245 -> 3461.00
16:21:26:247 -> 3463.00
16:21:26:248 -> 3485.00
16:21:26:249 -> 3546.00
16:21:26:250 -> 3513.00
16:21:26:251 -> 3515.00
16:21:26:268 -> 3503.00
16:21:26:268 -> 3529.00
16:21:26:268 -> 3521.00
16:21:26:268 -> 3542.00
16:21:26:268 -> 3586.00
16:21:26:268 -> 3574.00
16:21:26:268 -> 3560.00
16:21:26:268 -> 3561.00
16:21:26:268 -> 3535.00
16:21:26:268 -> 3512.00
16:21:26:290 -> 3473.00
16:21:26:290 -> 3470.00
16:21:26:290 -> 3471.00
16:21:26:290 -> 3501.00
16:21:26:290 -> 3497.00
16:21:26:290 -> 3514.00
16:21:26:290 -> 3530.00
16:21:26:290 -> 3539.00
16:21:26:290 -> 3534.00
16:21:26:290 -> 3601.00
16:21:26:290 -> 3538.00
16:21:26:290 -> 3569.00
16:21:26:290 -> 3581.00
16:21:26:290 -> 3543.00
16:21:26:290 -> 3546.00
16:21:26:295 -> 3539.00
16:21:26:295 -> 3531.00
16:21:26:295 -> 3500.00
16:21:26:295 -> 3485.00
16:21:26:295 -> 3523.00
16:21:26:295 -> 3538.00
16:21:26:295 -> 3517.00
16:21:26:295 -> 3513.00
16:21:26:295 -> 3536.00
16:21:26:295 -> 3521.00
16:21:26:295 -> 3536.00
16:21:26:297 -> 3661.00
16:21:26:297 -> 3593.00
16:21:26:298 -> 3568.00
16:21:26:299 -> 3516.00
16:21:26:300 -> 3559.00
16:21:26:301 -> 3537.00
16:21:26:303 -> 3540.00
16:21:26:304 -> 3513.00
16:21:26:305 -> 3468.00
16:21:26:306 -> 3501.00
16:21:26:307 -> 3482.00
16:21:26:308 -> 3491.00
16:21:26:310 -> 3506.00
16:21:26:311 -> 3509.00
16:21:26:312 -> 3514.00
16:21:26:313 -> 3537.00
16:21:26:314 -> 3540.00
16:21:26:316 -> 3586.00
16:21:26:317 -> 3608.00
16:21:26:318 -> 3565.00
16:21:26:319 -> 3553.00
16:21:26:320 -> 3568.00
16:21:26:321 -> 3524.00
16:21:26:323 -> 3532.00
16:21:26:324 -> 3524.00
16:21:26:325 -> 3492.00
16:21:26:326 -> 3467.00
16:21:26:327 -> 3479.00
16:21:26:329 -> 3495.00
16:21:26:330 -> 3504.00
16:21:26:331 -> 3547.00
16:21:26:332 -> 3541.00
16:21:26:333 -> 3527.00
16:21:26:335 -> 3534.00
16:21:26:336 -> 3576.00
16:21:26:338 -> 3550.00
16:21:26:340 -> 3577.00
16:21:26:341 -> 3564.00
16:21:26:341 -> 3538.00
16:21:26:342 -> 3547.00
16:21:26:343 -> 3527.00
16:21:26:344 -> 3496.00
16:21:26:345 -> 3469.00
16:21:26:347 -> 3449.00
16:21:26:348 -> 3505.00
16:21:26:349 -> 3506.00
16:21:26:350 -> 3513.00
16:21:26:352 -> 3526.00
16:21:26:356 -> 3513.00
16:21:26:356 -> 3535.00
16:21:26:356 -> 3556.00
16:21:26:359 -> 3543.00
16:21:26:359 -> 3553.00
16:21:26:359 -> 3569.00
16:21:26:360 -> 3556.00
16:21:26:361 -> 3578.00
16:21:26:362 -> 3533.00
16:21:26:363 -> 3519.00
16:21:26:364 -> 3478.00
16:21:26:366 -> 3454.00
16:21:26:386 -> 3476.00
16:21:26:386 -> 3440.00
16:21:26:386 -> 3503.00
16:21:26:386 -> 3517.00
16:21:26:386 -> 3568.00
16:21:26:386 -> 3550.00
16:21:26:386 -> 3539.00
16:21:26:386 -> 3534.00
16:21:26:386 -> 3541.00
16:21:26:386 -> 3586.00
16:21:26:402 -> 3565.00
16:21:26:402 -> 3563.00
16:21:26:402 -> 3554.00
16:21:26:402 -> 3535.00
16:21:26:402 -> 3521.00
16:21:26:402 -> 3516.00
16:21:26:402 -> 3483.00
16:21:26:402 -> 3476.00
16:21:26:402 -> 3495.00
16:21:26:402 -> 3504.00
16:21:26:402 -> 3515.00
16:21:26:402 -> 3497.00
16:21:26:402 -> 3515.00
16:21:26:402 -> 3529.00
16:21:26:402 -> 3575.00
16:21:26:402 -> 3638.00
16:21:26:402 -> 3566.00
16:21:26:402 -> 3565.00
16:21:26:402 -> 3547.00
16:21:26:402 -> 3544.00
16:21:26:405 -> 3535.00
16:21:26:405 -> 3505.00
16:21:26:405 -> 3473.00
16:21:26:406 -> 3435.00
16:21:26:408 -> 3495.00
16:21:26:409 -> 3480.00
16:21:26:410 -> 3500.00
16:21:26:411 -> 3528.00
16:21:26:412 -> 3523.00
16:21:26:413 -> 3502.00
16:21:26:414 -> 3558.00
16:21:26:416 -> 3575.00
16:21:26:417 -> 3578.00
16:21:26:418 -> 3568.00
16:21:26:419 -> 3559.00
16:21:26:420 -> 3541.00
16:21:26:422 -> 3544.00
16:21:26:423 -> 3540.00
16:21:26:424 -> 3491.00
16:21:26:425 -> 3502.00
16:21:26:426 -> 3481.00
16:21:26:427 -> 3505.00
16:21:26:429 -> 3490.00
16:21:26:430 -> 3511.00
16:21:26:431 -> 3514.00
16:21:26:432 -> 3521.00
16:21:26:433 -> 3554.00
16:21:26:435 -> 3549.00
16:21:26:436 -> 3524.00
16:21:26:438 -> 3574.00
16:21:26:446 -> 3569.00
16:21:26:446 -> 3573.00
16:21:26:461 -> 3540.00
16:21:26:461 -> 3524.00
16:21:26:461 -> 3499.00
16:21:26:461 -> 3486.00
16:21:26:461 -> 3469.00
16:21:26:461 -> 3491.00
16:21:26:461 -> 3528.00
16:21:26:461 -> 3492.00
16:21:26:461 -> 3513.00
16:21:26:461 -> 3527.00
16:21:26:466 -> 3526.00
16:21:26:466 -> 3500.00
16:21:26:466 -> 3537.00
16:21:26:466 -> 3559.00
16:21:26:466 -> 3577.00
16:21:26:466 -> 3555.00
16:21:26:466 -> 3560.00
16:21:26:466 -> 3555.00
16:21:26:466 -> 3514.00
16:21:26:466 -> 3507.00
16:21:26:466 -> 3493.00
16:21:26:466 -> 3498.00
16:21:26:474 -> 3503.00
16:21:26:474 -> 3505.00
16:21:26:474 -> 3517.00
16:21:26:474 -> 3516.00
16:21:26:474 -> 3526.00
16:21:26:474 -> 3532.00
16:21:26:474 -> 3539.00
16:21:26:477 -> 3565.00
16:21:26:477 -> 3594.00
16:21:26:477 -> 3609.00
16:21:26:481 -> 3665.00
16:21:26:481 -> 3570.00
16:21:26:482 -> 3545.00
16:21:26:482 -> 3533.00
16:21:26:484 -> 3500.00
16:21:26:485 -> 3479.00
16:21:26:486 -> 3474.00
16:21:26:487 -> 3493.00
16:21:26:488 -> 3493.00
16:21:26:489 -> 3506.00
16:21:26:492 -> 3523.00
16:21:26:492 -> 3521.00
16:21:26:493 -> 3518.00
16:21:26:494 -> 3515.00
16:21:26:495 -> 3547.00
16:21:26:497 -> 3567.00
16:21:26:498 -> 3565.00
16:21:26:499 -> 3561.00
16:21:26:500 -> 3549.00
16:21:26:501 -> 3537.00
16:21:26:502 -> 3530.00
16:21:26:504 -> 3536.00
16:21:26:505 -> 3485.00
16:21:26:506 -> 3494.00
16:21:26:507 -> 3468.00
16:21:26:508 -> 3497.00
16:21:26:510 -> 3508.00
16:21:26:511 -> 3521.00
16:21:26:512 -> 3503.00
16:21:26:513 -> 3533.00
16:21:26:514 -> 3542.00
16:21:26:516 -> 3503.00
16:21:26:517 -> 3538.00
16:21:26:518 -> 3497.00
16:21:26:519 -> 3563.00
16:21:26:522 -> 3543.00
16:21:26:530 -> 3548.00
16:21:26:530 -> 3514.00
16:21:26:568 -> 3503.00
16:21:26:568 -> 3468.00
16:21:26:568 -> 3469.00
16:21:26:568 -> 3494.00
16:21:26:568 -> 3502.00
16:21:26:568 -> 3512.00
16:21:26:568 -> 3521.00
16:21:26:568 -> 3501.00
16:21:26:568 -> 3512.00
16:21:26:568 -> 3533.00
16:21:26:568 -> 3539.00
16:21:26:568 -> 3559.00
16:21:26:568 -> 3568.00
16:21:26:568 -> 3571.00
16:21:26:568 -> 3545.00
16:21:26:568 -> 3514.00
16:21:26:575 -> 3499.00
16:21:26:575 -> 3493.00
16:21:26:575 -> 3530.00
16:21:26:575 -> 3493.00
16:21:26:575 -> 3499.00
16:21:26:575 -> 3489.00
16:21:26:575 -> 3516.00
16:21:26:575 -> 3525.00
16:21:26:575 -> 3523.00
16:21:26:575 -> 3530.00
16:21:26:575 -> 3551.00
16:21:26:575 -> 3586.00
16:21:26:575 -> 3563.00
16:21:26:575 -> 3569.00
16:21:26:575 -> 3554.00
16:21:26:575 -> 3541.00
16:21:26:575 -> 3485.00
16:21:26:575 -> 3515.00
16:21:26:575 -> 3495.00
16:21:26:575 -> 3577.00
16:21:26:575 -> 3500.00
16:21:26:575 -> 3491.00
16:21:26:575 -> 3499.00
16:21:26:575 -> 3516.00
16:21:26:575 -> 3512.00
16:21:26:575 -> 3538.00
16:21:26:575 -> 3536.00
16:21:26:576 -> 3589.00
16:21:26:577 -> 3570.00
16:21:26:578 -> 3564.00
16:21:26:579 -> 3553.00
16:21:26:580 -> 3559.00
16:21:26:581 -> 3537.00
16:21:26:582 -> 3533.00
16:21:26:583 -> 3534.00
16:21:26:585 -> 3522.00
16:21:26:586 -> 3506.00
16:21:26:587 -> 3518.00
16:21:26:588 -> 3494.00
16:21:26:589 -> 3513.00
16:21:26:591 -> 3510.00
16:21:26:592 -> 3532.00
16:21:26:593 -> 3510.00
16:21:26:594 -> 3565.00
16:21:26:595 -> 3585.00
16:21:26:596 -> 3592.00
16:21:26:598 -> 3560.00
16:21:26:599 -> 3567.00
16:21:26:600 -> 3554.00
16:21:26:602 -> 3530.00
16:21:26:603 -> 3537.00
16:21:26:605 -> 3517.00
16:21:26:606 -> 3485.00
16:21:26:606 -> 3488.00
16:21:26:607 -> 3486.00
16:21:26:608 -> 3504.00
16:21:26:610 -> 3524.00
16:21:26:611 -> 3517.00
16:21:26:612 -> 3511.00
16:21:26:613 -> 3534.00
16:21:26:615 -> 3539.00
16:21:26:618 -> 3591.00
16:21:26:618 -> 3561.00
16:21:26:621 -> 3590.00
16:21:26:621 -> 3580.00
16:21:26:621 -> 3555.00
16:21:26:622 -> 3533.00
16:21:26:623 -> 3542.00
16:21:26:624 -> 3507.00
16:21:26:625 -> 3483.00
16:21:26:626 -> 3482.00
16:21:26:628 -> 3484.00
16:21:26:630 -> 3514.00
16:21:26:678 -> 3510.00
16:21:26:722 -> 3525.00
16:21:26:722 -> 3540.00
16:21:26:722 -> 3548.00
16:21:26:722 -> 3563.00
16:21:26:722 -> 3568.00
16:21:26:722 -> 3550.00
16:21:26:722 -> 3554.00
16:21:26:722 -> 3574.00
16:21:26:722 -> 3550.00
16:21:26:722 -> 3538.00
16:21:26:722 -> 3505.00
16:21:26:722 -> 3486.00
16:21:26:722 -> 3483.00
16:21:26:722 -> 3489.00
16:21:26:722 -> 3481.00
16:21:26:722 -> 3512.00
16:21:26:722 -> 3517.00
16:21:26:722 -> 3525.00
16:21:26:722 -> 3450.00
16:21:26:722 -> 3525.00
16:21:26:722 -> 3544.00
16:21:26:722 -> 3514.00
16:21:26:722 -> 3558.00
16:21:26:722 -> 3565.00
16:21:26:722 -> 3558.00
16:21:26:722 -> 3550.00
16:21:26:722 -> 3547.00
16:21:26:722 -> 3521.00
16:21:26:722 -> 3513.00
16:21:26:722 -> 3468.00
16:21:26:722 -> 3508.00
16:21:26:722 -> 3499.00
16:21:26:722 -> 3500.00
16:21:26:722 -> 3508.00
16:21:26:722 -> 3516.00
16:21:26:722 -> 3488.00
16:21:26:722 -> 3532.00
16:21:26:722 -> 3560.00
16:21:26:722 -> 3587.00
16:21:26:722 -> 3567.00
16:21:26:722 -> 3571.00
16:21:26:722 -> 3566.00
16:21:26:722 -> 3565.00
16:21:26:722 -> 3484.00
16:21:26:722 -> 3507.00
16:21:26:722 -> 3495.00
16:21:26:722 -> 3474.00
16:21:26:722 -> 3505.00
16:21:26:722 -> 3503.00
16:21:26:722 -> 3513.00
16:21:26:722 -> 3510.00
16:21:26:722 -> 3537.00
16:21:26:722 -> 3547.00
16:21:26:722 -> 3532.00
16:21:26:722 -> 3545.00
16:21:26:722 -> 3552.00
16:21:26:724 -> 3546.00
16:21:26:724 -> 3573.00
16:21:26:724 -> 3569.00
16:21:26:724 -> 3557.00
16:21:26:724 -> 3534.00
16:21:26:724 -> 3533.00
16:21:26:724 -> 3480.00
16:21:26:724 -> 3469.00
16:21:26:724 -> 3467.00
16:21:26:724 -> 3455.00
16:21:26:724 -> 3509.00
16:21:26:724 -> 3509.00
16:21:26:724 -> 3553.00
16:21:26:724 -> 3532.00
16:21:26:724 -> 3577.00
16:21:26:724 -> 3479.00
16:21:26:724 -> 3536.00
16:21:26:724 -> 3551.00
16:21:26:724 -> 3566.00
16:21:26:724 -> 3536.00
16:21:26:724 -> 3548.00
16:21:26:724 -> 3515.00
16:21:26:724 -> 3493.00
16:21:26:749 -> 3503.00
16:21:26:749 -> 3493.00
16:21:26:749 -> 3478.00
16:21:26:749 -> 3516.00
16:21:26:749 -> 3509.00
16:21:26:749 -> 3525.00
16:21:26:749 -> 3493.00
16:21:26:749 -> 3491.00
16:21:26:749 -> 3559.00
16:21:26:749 -> 3559.00
16:21:26:749 -> 3568.00
16:21:26:749 -> 3572.00
16:21:26:749 -> 3563.00
16:21:26:749 -> 3550.00
16:21:26:749 -> 3543.00
16:21:26:749 -> 3547.00
16:21:26:749 -> 3513.00
16:21:26:749 -> 3488.00
16:21:26:749 -> 3436.00
16:21:26:749 -> 3456.00
16:21:26:749 -> 3506.00
16:21:26:760 -> 3519.00
16:21:26:760 -> 3528.00
16:21:26:760 -> 3507.00
16:21:26:760 -> 3557.00
16:21:26:760 -> 3547.00
16:21:26:760 -> 3573.00
16:21:26:760 -> 3568.00
16:21:26:760 -> 3547.00
16:21:26:760 -> 3555.00
16:21:26:763 -> 3552.00
16:21:26:763 -> 3549.00
16:21:26:764 -> 3503.00
16:21:26:765 -> 3497.00
16:21:26:766 -> 3507.00
16:21:26:767 -> 3473.00
16:21:26:768 -> 3531.00
16:21:26:769 -> 3498.00
16:21:26:770 -> 3499.00
16:21:26:771 -> 3540.00
16:21:26:773 -> 3545.00
16:21:26:774 -> 3567.00
16:21:26:781 -> 3561.00
16:21:26:781 -> 3566.00
16:21:26:781 -> 3572.00
16:21:26:781 -> 3554.00
16:21:26:781 -> 3549.00
16:21:26:782 -> 3558.00
16:21:26:782 -> 3533.00
16:21:26:791 -> 3538.00
16:21:26:791 -> 3501.00
16:21:26:791 -> 3488.00
16:21:26:791 -> 3463.00
16:21:26:791 -> 3499.00
16:21:26:791 -> 3500.00
16:21:26:791 -> 3531.00
16:21:26:803 -> 3519.00
16:21:26:803 -> 3530.00
16:21:26:803 -> 3542.00
16:21:26:803 -> 3589.00
16:21:26:803 -> 3550.00
16:21:26:803 -> 3584.00
16:21:26:803 -> 3569.00
16:21:26:803 -> 3558.00
16:21:26:803 -> 3547.00
16:21:26:803 -> 3536.00
16:21:26:812 -> 3545.00
16:21:26:812 -> 3487.00
16:21:26:812 -> 3436.00
16:21:26:812 -> 3503.00
16:21:26:812 -> 3495.00
16:21:26:812 -> 3513.00
16:21:26:812 -> 3522.00
16:21:26:816 -> 3510.00
16:21:26:816 -> 3520.00
16:21:26:816 -> 3556.00
16:21:26:816 -> 3562.00
16:21:26:819 -> 3600.00
16:21:26:819 -> 3563.00
16:21:26:820 -> 3576.00
16:21:26:821 -> 3537.00
16:21:26:821 -> 3529.00
16:21:26:823 -> 3533.00
16:21:26:824 -> 3505.00
16:21:26:825 -> 3464.00
16:21:26:826 -> 3478.00
16:21:26:829 -> 3487.00
16:21:26:830 -> 3505.00
16:21:26:830 -> 3519.00
16:21:26:831 -> 3533.00
16:21:26:832 -> 3554.00
16:21:26:834 -> 3546.00
16:21:26:835 -> 3558.00
16:21:26:836 -> 3550.00
16:21:26:837 -> 3584.00
16:21:26:838 -> 3565.00
16:21:26:839 -> 3565.00
16:21:26:841 -> 3547.00
16:21:26:842 -> 3541.00
16:21:26:843 -> 3514.00
16:21:26:844 -> 3526.00
16:21:26:845 -> 3472.00
16:21:26:846 -> 3477.00
16:21:26:848 -> 3479.00
16:21:26:849 -> 3507.00
16:21:26:850 -> 3512.00
16:21:26:851 -> 3528.00
16:21:26:852 -> 3532.00
16:21:26:854 -> 3561.00
16:21:26:855 -> 3565.00
16:21:26:856 -> 3609.00
16:21:26:857 -> 3573.00
16:21:26:859 -> 3568.00
16:21:26:860 -> 3558.00
16:21:26:861 -> 3560.00
16:21:26:862 -> 3550.00
16:21:26:863 -> 3554.00
16:21:26:864 -> 3474.00
16:21:26:866 -> 3469.00
16:21:26:867 -> 3474.00
16:21:26:868 -> 3498.00
16:21:26:869 -> 3505.00
16:21:26:870 -> 3521.00
16:21:26:871 -> 3516.00
16:21:26:873 -> 3511.00
16:21:26:874 -> 3540.00
16:21:26:875 -> 3566.00
16:21:26:876 -> 3555.00
16:21:26:877 -> 3566.00
16:21:26:879 -> 3561.00
16:21:26:880 -> 3553.00
16:21:26:881 -> 3540.00
16:21:26:882 -> 3544.00
16:21:26:884 -> 3540.00
16:21:26:884 -> 3525.00
16:21:26:886 -> 3493.00
16:21:26:887 -> 3484.00
16:21:26:888 -> 3464.00
16:21:26:889 -> 3496.00
16:21:26:890 -> 3520.00
16:21:26:892 -> 3525.00
16:21:26:893 -> 3526.00
16:21:26:894 -> 3523.00
16:21:26:896 -> 3534.00
16:21:26:896 -> 3571.00
16:21:26:898 -> 3575.00
16:21:26:920 -> 3577.00
16:21:26:929 -> 3559.00
16:21:26:929 -> 3542.00
16:21:26:929 -> 3536.00
16:21:26:929 -> 3508.00
16:21:26:929 -> 3519.00
16:21:26:929 -> 3458.00
16:21:26:929 -> 3494.00
16:21:26:929 -> 3522.00
16:21:26:929 -> 3505.00
16:21:26:929 -> 3525.00
16:21:26:929 -> 3501.00
16:21:26:929 -> 3509.00
16:21:26:929 -> 3565.00
16:21:26:929 -> 3583.00
16:21:26:929 -> 3581.00
16:21:26:929 -> 3570.00
16:21:26:929 -> 3571.00
16:21:26:929 -> 3562.00
16:21:26:929 -> 3549.00
16:21:26:929 -> 3510.00
16:21:26:929 -> 3503.00
16:21:26:929 -> 3487.00
16:21:26:930 -> 3513.00
16:21:26:930 -> 3493.00
16:21:26:930 -> 3501.00
16:21:26:930 -> 3508.00
16:21:26:931 -> 3527.00
16:21:26:932 -> 3527.00
16:21:26:933 -> 3576.00
16:21:26:935 -> 3627.00
16:21:26:937 -> 3586.00
16:21:26:938 -> 3569.00
16:21:26:938 -> 3561.00
16:21:26:941 -> 3565.00
16:21:26:941 -> 3558.00
16:21:26:942 -> 3546.00
16:21:26:943 -> 3544.00
16:21:26:944 -> 3496.00
16:21:26:945 -> 3472.00
16:21:26:946 -> 3453.00
16:21:26:948 -> 3516.00
16:21:26:949 -> 3519.00
16:21:26:950 -> 3512.00
16:21:26:951 -> 3517.00
16:21:26:952 -> 3535.00
16:21:26:954 -> 3522.00
16:21:26:955 -> 3539.00
16:21:26:956 -> 3538.00
16:21:26:957 -> 3559.00
16:21:26:958 -> 3582.00
16:21:26:959 -> 3547.00
16:21:26:962 -> 3545.00
16:21:26:963 -> 3560.00
16:21:26:963 -> 3515.00
16:21:26:965 -> 3494.00
16:21:26:966 -> 3498.00
16:21:26:967 -> 3486.00
16:21:26:968 -> 3537.00
16:21:26:969 -> 3504.00
16:21:26:971 -> 3518.00
16:21:26:971 -> 3511.00
16:21:26:973 -> 3502.00
16:21:26:976 -> 3517.00
16:21:26:980 -> 3546.00
16:21:26:980 -> 3583.00
16:21:26:980 -> 3591.00
16:21:26:980 -> 3578.00
16:21:26:986 -> 3571.00
16:21:26:986 -> 3526.00
16:21:26:986 -> 3509.00
16:21:26:986 -> 3525.00
16:21:26:986 -> 3496.00
16:21:26:989 -> 3514.00
16:21:26:989 -> 3498.00
16:21:26:989 -> 3499.00
16:21:26:989 -> 3510.00
16:21:26:990 -> 3515.00
16:21:27:012 -> 3530.00
16:21:27:012 -> 3510.00
16:21:27:012 -> 3542.00
16:21:27:012 -> 3544.00
16:21:27:012 -> 3543.00
16:21:27:012 -> 3582.00
16:21:27:012 -> 3574.00
16:21:27:012 -> 3561.00
16:21:27:012 -> 3551.00
16:21:27:012 -> 3542.00
16:21:27:012 -> 3499.00
16:21:27:012 -> 3482.00
16:21:27:012 -> 3484.00
16:21:27:012 -> 3509.00
16:21:27:012 -> 3496.00
16:21:27:012 -> 3508.00
16:21:27:012 -> 3515.00
16:21:27:012 -> 3524.00
16:21:27:019 -> 3521.00
16:21:27:019 -> 3521.00
16:21:27:019 -> 3597.00
16:21:27:019 -> 3598.00
16:21:27:019 -> 3566.00
16:21:27:022 -> 3565.00
16:21:27:022 -> 3561.00
16:21:27:022 -> 3544.00
16:21:27:040 -> 3539.00
16:21:27:040 -> 3515.00
16:21:27:040 -> 3461.00
16:21:27:040 -> 3442.00
16:21:27:040 -> 3491.00
16:21:27:040 -> 3504.00
16:21:27:040 -> 3514.00
16:21:27:040 -> 3520.00
16:21:27:040 -> 3543.00
16:21:27:040 -> 3519.00
16:21:27:040 -> 3557.00
16:21:27:040 -> 3521.00
16:21:27:040 -> 3588.00
16:21:27:040 -> 3597.00
16:21:27:040 -> 3564.00
16:21:27:040 -> 3555.00
16:21:27:045 -> 3541.00
16:21:27:045 -> 3519.00
16:21:27:045 -> 3530.00
16:21:27:048 -> 3503.00
16:21:27:048 -> 3495.00
16:21:27:048 -> 3477.00
16:21:27:050 -> 3517.00
16:21:27:050 -> 3506.00
16:21:27:058 -> 3506.00
16:21:27:058 -> 3542.00
16:21:27:058 -> 3547.00
16:21:27:058 -> 3549.00
16:21:27:058 -> 3590.00
16:21:27:059 -> 3534.00
16:21:27:059 -> 3568.00
16:21:27:065 -> 3556.00
16:21:27:065 -> 3549.00
16:21:27:065 -> 3535.00
16:21:27:065 -> 3512.00
16:21:27:065 -> 3502.00
16:21:27:073 -> 3465.00
16:21:27:073 -> 3521.00
16:21:27:073 -> 3463.00
16:21:27:073 -> 3495.00
16:21:27:073 -> 3498.00
16:21:27:073 -> 3515.00
16:21:27:073 -> 3525.00
16:21:27:075 -> 3481.00
16:21:27:075 -> 3544.00
16:21:27:079 -> 3595.00
16:21:27:079 -> 3538.00
16:21:27:094 -> 3547.00
16:21:27:094 -> 3558.00
16:21:27:094 -> 3549.00
16:21:27:094 -> 3513.00
16:21:27:094 -> 3508.00
16:21:27:094 -> 3505.00
16:21:27:094 -> 3488.00
16:21:27:094 -> 3521.00
16:21:27:094 -> 3507.00
16:21:27:094 -> 3528.00
16:21:27:094 -> 3516.00
16:21:27:094 -> 3529.00
16:21:27:094 -> 3527.00
16:21:27:116 -> 3546.00
16:21:27:116 -> 3551.00
16:21:27:116 -> 3499.00
16:21:27:116 -> 3558.00
16:21:27:116 -> 3551.00
16:21:27:116 -> 3561.00
16:21:27:116 -> 3589.00
16:21:27:116 -> 3571.00
16:21:27:159 -> 3509.00
16:21:27:159 -> 3474.00
16:21:27:159 -> 3476.00
16:21:27:159 -> 3470.00
16:21:27:159 -> 3491.00
16:21:27:159 -> 3503.00
16:21:27:159 -> 3514.00
16:21:27:159 -> 3500.00
16:21:27:159 -> 3532.00
16:21:27:159 -> 3528.00
16:21:27:159 -> 3580.00
16:21:27:159 -> 3602.00
16:21:27:159 -> 3549.00
16:21:27:159 -> 3567.00
16:21:27:159 -> 3558.00
16:21:27:159 -> 3538.00
16:21:27:159 -> 3530.00
16:21:27:159 -> 3523.00
16:21:27:159 -> 3525.00
16:21:27:159 -> 3521.00
16:21:27:159 -> 3494.00
16:21:27:159 -> 3515.00
16:21:27:159 -> 3527.00
16:21:27:159 -> 3535.00
16:21:27:159 -> 3566.00
16:21:27:159 -> 3516.00
16:21:27:159 -> 3525.00
16:21:27:169 -> 3544.00
16:21:27:169 -> 3596.00
16:21:27:169 -> 3575.00
16:21:27:169 -> 3591.00
16:21:27:169 -> 3593.00
16:21:27:169 -> 3565.00
16:21:27:169 -> 3529.00
16:21:27:169 -> 3521.00
16:21:27:169 -> 3532.00
16:21:27:169 -> 3506.00
16:21:27:169 -> 3496.00
16:21:27:169 -> 3511.00
16:21:27:169 -> 3511.00
16:21:27:169 -> 3519.00
16:21:27:169 -> 3511.00
16:21:27:169 -> 3526.00
16:21:27:169 -> 3524.00
16:21:27:169 -> 3512.00
16:21:27:169 -> 3507.00
16:21:27:169 -> 3530.00
16:21:27:169 -> 3563.00
16:21:27:169 -> 3570.00
16:21:27:169 -> 3583.00
16:21:27:169 -> 3552.00
16:21:27:169 -> 3542.00
16:21:27:193 -> 3525.00
16:21:27:193 -> 3485.00
16:21:27:193 -> 3481.00
16:21:27:193 -> 3512.00
16:21:27:193 -> 3517.00
16:21:27:193 -> 3513.00
16:21:27:193 -> 3496.00
16:21:27:193 -> 3543.00
16:21:27:193 -> 3556.00
16:21:27:193 -> 3604.00
16:21:27:193 -> 3594.00
16:21:27:193 -> 3609.00
16:21:27:193 -> 3597.00
16:21:27:193 -> 3598.00
16:21:27:193 -> 3575.00
16:21:27:193 -> 3571.00
16:21:27:193 -> 3546.00
16:21:27:193 -> 3515.00
16:21:27:193 -> 3497.00
16:21:27:193 -> 3505.00
16:21:27:193 -> 3495.00
16:21:27:193 -> 3521.00
16:21:27:193 -> 3536.00
16:21:27:193 -> 3545.00
16:21:27:206 -> 3552.00
16:21:27:206 -> 3567.00
16:21:27:206 -> 3558.00
16:21:27:206 -> 3605.00
16:21:27:206 -> 3571.00
16:21:27:206 -> 3587.00
16:21:27:206 -> 3584.00
16:21:27:206 -> 3572.00
16:21:27:206 -> 3545.00
16:21:27:206 -> 3504.00
16:21:27:212 -> 3494.00
16:21:27:212 -> 3499.00
16:21:27:212 -> 3509.00
16:21:27:212 -> 3523.00
16:21:27:212 -> 3543.00
16:21:27:217 -> 3531.00
16:21:27:217 -> 3558.00
16:21:27:217 -> 3551.00
16:21:27:217 -> 3599.00
16:21:27:217 -> 3629.00
16:21:27:261 -> 3626.00
16:21:27:261 -> 3576.00
16:21:27:261 -> 3558.00
16:21:27:261 -> 3570.00
16:21:27:261 -> 3551.00
16:21:27:261 -> 3540.00
16:21:27:261 -> 3479.00
16:21:27:261 -> 3464.00
16:21:27:261 -> 3439.00
16:21:27:261 -> 3493.00
16:21:27:261 -> 3490.00
16:21:27:314 -> 3494.00
16:21:27:314 -> 3538.00
16:21:27:314 -> 3543.00
16:21:27:314 -> 3539.00
16:21:27:314 -> 3531.00
16:21:27:314 -> 3555.00
16:21:27:314 -> 3570.00
16:21:27:314 -> 3575.00
16:21:27:314 -> 3629.00
16:21:27:314 -> 3525.00
16:21:27:314 -> 3535.00
16:21:27:314 -> 3490.00
16:21:27:314 -> 3452.00
16:21:27:314 -> 3434.00
16:21:27:314 -> 3503.00
16:21:27:314 -> 3491.00
16:21:27:314 -> 3524.00
16:21:27:314 -> 3547.00
16:21:27:314 -> 3541.00
16:21:27:314 -> 3561.00
16:21:27:314 -> 3542.00
16:21:27:314 -> 3580.00
16:21:27:314 -> 3553.00
16:21:27:314 -> 3579.00
16:21:27:314 -> 3564.00
16:21:27:314 -> 3548.00
16:21:27:314 -> 3582.00
16:21:27:314 -> 3573.00
16:21:27:314 -> 3537.00
16:21:27:314 -> 3524.00
16:21:27:314 -> 3453.00
16:21:27:314 -> 3488.00
16:21:27:314 -> 3523.00
16:21:27:314 -> 3529.00
16:21:27:314 -> 3538.00
16:21:27:314 -> 3544.00
16:21:27:314 -> 3582.00
16:21:27:314 -> 3568.00
16:21:27:314 -> 3538.00
16:21:27:314 -> 3534.00
16:21:27:314 -> 3573.00
16:21:27:314 -> 3572.00
16:21:27:314 -> 3563.00
16:21:27:314 -> 3565.00
16:21:27:314 -> 3510.00
16:21:27:314 -> 3519.00
16:21:27:314 -> 3428.00
16:21:27:314 -> 3481.00
16:21:27:314 -> 3489.00
16:21:27:314 -> 3497.00
16:21:27:314 -> 3497.00
16:21:27:314 -> 3506.00
16:21:27:314 -> 3536.00
16:21:27:314 -> 3557.00
16:21:27:314 -> 3558.00
16:21:27:314 -> 3472.00
16:21:27:314 -> 3545.00
16:21:27:314 -> 3552.00
16:21:27:314 -> 3563.00
16:21:27:314 -> 3551.00
16:21:27:314 -> 3545.00
16:21:27:314 -> 3519.00
16:21:27:314 -> 3502.00
16:21:27:314 -> 3469.00
16:21:27:314 -> 3464.00
16:21:27:314 -> 3491.00
16:21:27:314 -> 3493.00
16:21:27:314 -> 3503.00
16:21:27:314 -> 3513.00
16:21:27:314 -> 3523.00
16:21:27:348 -> 3540.00
16:21:27:348 -> 3552.00
16:21:27:348 -> 3582.00
16:21:27:348 -> 3576.00
16:21:27:348 -> 3564.00
16:21:27:348 -> 3552.00
16:21:27:348 -> 3524.00
16:21:27:348 -> 3553.00
16:21:27:348 -> 3504.00
16:21:27:348 -> 3473.00
16:21:27:348 -> 3436.00
16:21:27:348 -> 3454.00
16:21:27:348 -> 3482.00
16:21:27:348 -> 3503.00
16:21:27:348 -> 3498.00
16:21:27:348 -> 3541.00
16:21:27:348 -> 3515.00
16:21:27:348 -> 3497.00
16:21:27:348 -> 3510.00
16:21:27:348 -> 3575.00
16:21:27:348 -> 3540.00
16:21:27:348 -> 3555.00
16:21:27:348 -> 3555.00
16:21:27:348 -> 3506.00
16:21:27:348 -> 3492.00
16:21:27:348 -> 3482.00
16:21:27:348 -> 3456.00
16:21:27:348 -> 3452.00
16:21:27:348 -> 3459.00
16:21:27:376 -> 3479.00
16:21:27:376 -> 3500.00
16:21:27:376 -> 3543.00
16:21:27:376 -> 3523.00
16:21:27:376 -> 3542.00
16:21:27:376 -> 3556.00
16:21:27:376 -> 3543.00
16:21:27:376 -> 3515.00
16:21:27:376 -> 3531.00
16:21:27:376 -> 3531.00
16:21:27:376 -> 3481.00
16:21:27:376 -> 3517.00
16:21:27:376 -> 3526.00
16:21:27:376 -> 3515.00
16:21:27:376 -> 3469.00
16:21:27:376 -> 3439.00
16:21:27:376 -> 3405.00
16:21:27:376 -> 3453.00
16:21:27:376 -> 3488.00
16:21:27:376 -> 3492.00
16:21:27:376 -> 3537.00
16:21:27:376 -> 3517.00
16:21:27:376 -> 3512.00
16:21:27:391 -> 3552.00
