16:32:35:124 -> 2585.00
16:32:35:124 -> 2582.00
16:32:35:124 -> 2597.00
16:32:35:124 -> 2615.00
16:32:35:124 -> 2608.00
16:32:35:124 -> 2639.00
16:32:35:124 -> 2723.00
16:32:35:124 -> 2755.00
16:32:35:124 -> 2656.00
16:32:35:126 -> 2537.00
16:32:35:126 -> 2432.00
16:32:35:127 -> 2534.00
16:32:35:128 -> 2637.00
16:32:35:129 -> 2594.00
16:32:35:130 -> 2529.00
16:32:35:132 -> 2444.00
16:32:35:133 -> 2462.00
16:32:35:134 -> 2468.00
16:32:35:135 -> 2506.00
16:32:35:136 -> 2424.00
16:32:35:138 -> 2520.00
16:32:35:139 -> 2589.00
16:32:35:140 -> 2541.00
16:32:35:141 -> 2446.00
16:32:35:142 -> 2349.00
16:32:35:143 -> 2495.00
16:32:35:146 -> 2695.00
16:32:35:147 -> 2639.00
16:32:35:148 -> 2646.00
16:32:35:149 -> 2661.00
16:32:35:151 -> 2553.00
16:32:35:152 -> 2465.00
16:32:35:153 -> 2492.00
16:32:35:154 -> 2486.00
16:32:35:145 -> 2591.00
16:32:35:155 -> 2484.00
16:32:35:157 -> 2571.00
16:32:35:158 -> 2699.00
16:32:35:159 -> 2750.00
16:32:35:160 -> 2563.00
16:32:35:162 -> 2211.00
16:32:35:163 -> 2460.00
16:32:35:164 -> 2583.00
16:32:35:165 -> 2611.00
16:32:35:166 -> 2662.00
16:32:35:169 -> 2712.00
16:32:35:169 -> 2658.00
16:32:35:170 -> 2666.00
16:32:35:171 -> 2531.00
16:32:35:172 -> 2434.00
16:32:35:173 -> 2440.00
16:32:35:174 -> 2456.00
16:32:35:176 -> 2535.00
16:32:35:177 -> 2620.00
16:32:35:201 -> 2563.00
16:32:35:201 -> 2514.00
16:32:35:201 -> 2516.00
16:32:35:201 -> 2567.00
16:32:35:201 -> 2607.00
16:32:35:201 -> 2577.00
16:32:35:201 -> 2470.00
16:32:35:201 -> 2343.00
16:32:35:201 -> 2655.00
16:32:35:201 -> 2635.00
16:32:35:201 -> 2628.00
16:32:35:201 -> 2594.00
16:32:35:201 -> 2584.00
16:32:35:201 -> 2604.00
16:32:35:201 -> 2477.00
16:32:35:201 -> 2456.00
16:32:35:201 -> 2480.00
16:32:35:208 -> 2477.00
16:32:35:208 -> 2452.00
16:32:35:208 -> 2506.00
16:32:35:208 -> 2510.00
16:32:35:208 -> 2689.00
16:32:35:209 -> 2815.00
16:32:35:209 -> 2717.00
16:32:35:209 -> 2633.00
16:32:35:209 -> 2275.00
16:32:35:209 -> 2452.00
16:32:35:210 -> 2594.00
16:32:35:211 -> 2570.00
16:32:35:212 -> 2617.00
16:32:35:214 -> 2589.00
16:32:35:215 -> 2517.00
16:32:35:216 -> 2479.00
16:32:35:217 -> 2523.00
16:32:35:218 -> 2527.00
16:32:35:220 -> 2551.00
16:32:35:221 -> 2502.00
16:32:35:222 -> 2577.00
16:32:35:223 -> 2652.00
16:32:35:224 -> 2623.00
16:32:35:226 -> 2431.00
16:32:35:227 -> 2493.00
16:32:35:228 -> 2527.00
16:32:35:229 -> 2484.00
16:32:35:230 -> 2516.00
16:32:35:232 -> 2558.00
16:32:35:233 -> 2624.00
16:32:35:234 -> 2553.00
16:32:35:235 -> 2576.00
16:32:35:236 -> 2494.00
16:32:35:238 -> 2431.00
16:32:35:239 -> 2506.00
16:32:35:240 -> 2552.00
16:32:35:241 -> 2581.00
16:32:35:247 -> 2692.00
16:32:35:247 -> 2663.00
16:32:35:247 -> 2586.00
16:32:35:247 -> 2494.00
16:32:35:247 -> 2575.00
16:32:35:249 -> 2562.00
16:32:35:249 -> 2539.00
16:32:35:251 -> 2552.00
16:32:35:252 -> 2499.00
16:32:35:256 -> 2575.00
16:32:35:256 -> 2621.00
16:32:35:256 -> 2641.00
16:32:35:282 -> 2538.00
16:32:35:282 -> 2385.00
16:32:35:282 -> 2516.00
16:32:35:282 -> 2507.00
16:32:35:282 -> 2498.00
16:32:35:282 -> 2468.00
16:32:35:282 -> 2524.00
16:32:35:282 -> 2550.00
16:32:35:282 -> 2514.00
16:32:35:282 -> 2564.00
16:32:35:282 -> 2577.00
16:32:35:282 -> 2514.00
16:32:35:282 -> 2591.00
16:32:35:282 -> 2570.00
16:32:35:282 -> 2692.00
16:32:35:282 -> 2525.00
16:32:35:282 -> 2421.00
16:32:35:282 -> 2579.00
16:32:35:284 -> 2641.00
16:32:35:284 -> 2580.00
16:32:35:284 -> 2683.00
16:32:35:284 -> 2496.00
16:32:35:284 -> 2464.00
16:32:35:284 -> 2492.00
16:32:35:287 -> 2492.00
16:32:35:287 -> 2479.00
16:32:35:289 -> 2650.00
16:32:35:289 -> 2661.00
16:32:35:290 -> 2517.00
16:32:35:293 -> 2370.00
16:32:35:293 -> 2491.00
16:32:35:295 -> 2516.00
16:32:35:295 -> 2580.00
16:32:35:303 -> 2552.00
16:32:35:303 -> 2540.00
16:32:35:303 -> 2525.00
16:32:35:303 -> 2579.00
16:32:35:303 -> 2551.00
16:32:35:303 -> 2525.00
16:32:35:303 -> 2548.00
16:32:35:306 -> 2487.00
16:32:35:306 -> 2576.00
16:32:35:306 -> 2611.00
16:32:35:308 -> 2645.00
16:32:35:309 -> 2544.00
16:32:35:310 -> 2357.00
16:32:35:311 -> 2564.00
16:32:35:312 -> 2611.00
16:32:35:314 -> 2532.00
16:32:35:315 -> 2521.00
16:32:35:316 -> 2598.00
16:32:35:317 -> 2712.00
16:32:35:318 -> 2687.00
16:32:35:320 -> 2685.00
16:32:35:321 -> 2455.00
16:32:35:322 -> 2416.00
16:32:35:323 -> 2440.00
16:32:35:324 -> 2434.00
16:32:35:326 -> 2493.00
16:32:35:327 -> 2613.00
16:32:35:329 -> 2681.00
16:32:35:329 -> 2699.00
16:32:35:330 -> 2649.00
16:32:35:332 -> 2619.00
16:32:35:333 -> 2418.00
16:32:35:334 -> 2315.00
16:32:35:335 -> 2480.00
16:32:35:336 -> 2557.00
16:32:35:337 -> 2492.00
16:32:35:339 -> 2503.00
16:32:35:340 -> 2501.00
16:32:35:341 -> 2586.00
16:32:35:342 -> 2623.00
16:32:35:343 -> 2495.00
16:32:35:345 -> 2616.00
16:32:35:346 -> 2530.00
16:32:35:347 -> 2617.00
16:32:35:349 -> 2648.00
16:32:35:350 -> 2615.00
16:32:35:351 -> 2404.00
16:32:35:352 -> 2331.00
16:32:35:357 -> 2513.00
16:32:35:358 -> 2634.00
16:32:35:359 -> 2639.00
16:32:35:353 -> 2477.00
16:32:35:354 -> 2518.00
16:32:35:360 -> 2630.00
16:32:35:362 -> 2526.00
16:32:35:363 -> 2594.00
16:32:35:364 -> 2361.00
16:32:35:365 -> 2455.00
16:32:35:366 -> 2457.00
16:32:35:367 -> 2460.00
16:32:35:368 -> 2508.00
16:32:35:370 -> 2596.00
16:32:35:371 -> 2578.00
16:32:35:372 -> 2551.00
16:32:35:373 -> 2418.00
16:32:35:374 -> 2314.00
16:32:35:376 -> 2448.00
16:32:35:377 -> 2624.00
16:32:35:378 -> 2570.00
16:32:35:355 -> 2562.00
16:32:35:379 -> 2550.00
16:32:35:380 -> 2558.00
16:32:35:381 -> 2597.00
16:32:35:383 -> 2585.00
16:32:35:384 -> 2526.00
16:32:35:385 -> 2494.00
16:32:35:386 -> 2554.00
16:32:35:387 -> 2599.00
16:32:35:389 -> 2628.00
16:32:35:390 -> 2752.00
16:32:35:391 -> 2701.00
16:32:35:392 -> 2626.00
16:32:35:393 -> 2422.00
16:32:35:395 -> 2397.00
16:32:35:396 -> 2508.00
16:32:35:397 -> 2427.00
16:32:35:398 -> 2455.00
16:32:35:399 -> 2477.00
16:32:35:400 -> 2516.00
16:32:35:403 -> 2696.00
16:32:35:405 -> 2755.00
16:32:35:405 -> 2655.00
16:32:35:406 -> 2531.00
16:32:35:406 -> 2308.00
16:32:35:409 -> 2490.00
16:32:35:494 -> 2603.00
16:32:35:494 -> 2597.00
16:32:35:494 -> 2616.00
16:32:35:494 -> 2589.00
16:32:35:494 -> 2647.00
16:32:35:494 -> 2505.00
16:32:35:494 -> 2597.00
16:32:35:494 -> 2463.00
16:32:35:494 -> 2393.00
16:32:35:494 -> 2412.00
16:32:35:494 -> 2505.00
16:32:35:494 -> 2545.00
16:32:35:494 -> 2623.00
16:32:35:494 -> 2638.00
16:32:35:494 -> 2567.00
16:32:35:494 -> 2593.00
16:32:35:494 -> 2646.00
16:32:35:494 -> 2543.00
16:32:35:494 -> 2581.00
16:32:35:494 -> 2589.00
16:32:35:494 -> 2498.00
16:32:35:494 -> 2447.00
16:32:35:494 -> 2474.00
16:32:35:494 -> 2450.00
16:32:35:513 -> 2437.00
16:32:35:513 -> 2471.00
16:32:35:513 -> 2563.00
16:32:35:513 -> 2536.00
16:32:35:513 -> 2528.00
16:32:35:513 -> 2533.00
16:32:35:513 -> 2563.00
16:32:35:513 -> 2649.00
16:32:35:513 -> 2755.00
16:32:35:513 -> 2753.00
16:32:35:513 -> 2525.00
16:32:35:513 -> 2339.00
16:32:35:513 -> 2361.00
16:32:35:513 -> 2557.00
16:32:35:513 -> 2431.00
16:32:35:513 -> 2403.00
16:32:35:513 -> 2325.00
16:32:35:513 -> 2353.00
16:32:35:513 -> 2427.00
16:32:35:513 -> 2564.00
16:32:35:513 -> 2584.00
16:32:35:513 -> 2602.00
16:32:35:513 -> 2475.00
16:32:35:513 -> 2526.00
16:32:35:513 -> 2464.00
16:32:35:513 -> 2510.00
16:32:35:513 -> 2592.00
16:32:35:513 -> 2535.00
16:32:35:513 -> 2596.00
16:32:35:513 -> 2662.00
16:32:35:513 -> 2703.00
16:32:35:513 -> 2658.00
16:32:35:513 -> 2588.00
16:32:35:513 -> 2629.00
16:32:35:513 -> 2642.00
16:32:35:513 -> 2608.00
16:32:35:513 -> 2536.00
16:32:35:513 -> 2425.00
16:32:35:513 -> 2455.00
16:32:35:513 -> 2499.00
16:32:35:513 -> 2486.00
16:32:35:513 -> 2574.00
16:32:35:513 -> 2734.00
16:32:35:513 -> 2778.00
16:32:35:513 -> 2602.00
16:32:35:513 -> 2451.00
16:32:35:513 -> 2552.00
16:32:35:513 -> 2634.00
16:32:35:513 -> 2725.00
16:32:35:513 -> 2559.00
16:32:35:513 -> 2432.00
16:32:35:513 -> 2462.00
16:32:35:513 -> 2567.00
16:32:35:513 -> 2644.00
16:32:35:513 -> 2498.00
16:32:35:513 -> 2462.00
16:32:35:513 -> 2514.00
16:32:35:513 -> 2381.00
16:32:35:513 -> 2428.00
16:32:35:513 -> 2539.00
16:32:35:513 -> 2546.00
16:32:35:513 -> 2599.00
16:32:35:513 -> 2580.00
16:32:35:513 -> 2545.00
16:32:35:563 -> 2603.00
16:32:35:563 -> 2483.00
16:32:35:563 -> 2430.00
16:32:35:563 -> 2472.00
16:32:35:563 -> 2486.00
16:32:35:563 -> 2515.00
16:32:35:563 -> 2535.00
16:32:35:563 -> 2681.00
16:32:35:563 -> 2738.00
16:32:35:563 -> 2659.00
16:32:35:563 -> 2464.00
16:32:35:563 -> 2635.00
16:32:35:563 -> 2633.00
16:32:35:563 -> 2489.00
16:32:35:563 -> 2433.00
16:32:35:563 -> 2607.00
16:32:35:563 -> 2610.00
16:32:35:563 -> 2506.00
16:32:35:563 -> 2464.00
16:32:35:563 -> 2410.00
16:32:35:563 -> 2455.00
16:32:35:563 -> 2402.00
16:32:35:563 -> 2443.00
16:32:35:563 -> 2618.00
16:32:35:563 -> 2588.00
16:32:35:563 -> 2508.00
16:32:35:563 -> 2556.00
16:32:35:563 -> 2617.00
16:32:35:563 -> 2691.00
16:32:35:563 -> 2653.00
16:32:35:563 -> 2544.00
16:32:35:563 -> 2517.00
16:32:35:563 -> 2516.00
16:32:35:563 -> 2557.00
16:32:35:563 -> 2665.00
16:32:35:563 -> 2599.00
16:32:35:563 -> 2451.00
16:32:35:563 -> 2524.00
16:32:35:563 -> 2578.00
16:32:35:563 -> 2571.00
16:32:35:563 -> 2493.00
16:32:35:563 -> 2441.00
16:32:35:581 -> 2495.00
16:32:35:581 -> 2552.00
16:32:35:581 -> 2591.00
16:32:35:581 -> 2599.00
16:32:35:581 -> 2543.00
16:32:35:581 -> 2609.00
16:32:35:581 -> 2601.00
16:32:35:581 -> 2612.00
16:32:35:581 -> 2566.00
16:32:35:581 -> 2524.00
16:32:35:581 -> 2532.00
16:32:35:581 -> 2503.00
16:32:35:581 -> 2478.00
16:32:35:581 -> 2457.00
16:32:35:581 -> 2622.00
16:32:35:581 -> 2680.00
16:32:35:597 -> 2617.00
16:32:35:597 -> 2487.00
16:32:35:597 -> 2407.00
16:32:35:597 -> 2815.00
16:32:35:597 -> 2867.00
16:32:35:597 -> 2736.00
16:32:35:597 -> 2536.00
16:32:35:597 -> 2479.00
16:32:35:597 -> 2499.00
16:32:35:597 -> 2536.00
16:32:35:597 -> 2471.00
16:32:35:597 -> 2531.00
16:32:35:597 -> 2529.00
16:32:35:649 -> 2589.00
16:32:35:649 -> 2398.00
16:32:35:649 -> 2532.00
16:32:35:649 -> 2529.00
16:32:35:649 -> 2484.00
16:32:35:649 -> 2391.00
16:32:35:649 -> 2491.00
16:32:35:649 -> 2626.00
16:32:35:649 -> 2578.00
16:32:35:649 -> 2575.00
16:32:35:649 -> 2636.00
16:32:35:649 -> 2576.00
16:32:35:649 -> 2585.00
16:32:35:649 -> 2663.00
16:32:35:649 -> 2548.00
16:32:35:649 -> 2445.00
16:32:35:649 -> 2438.00
16:32:35:649 -> 2466.00
16:32:35:649 -> 2465.00
16:32:35:649 -> 2501.00
16:32:35:649 -> 2666.00
16:32:35:649 -> 2785.00
16:32:35:649 -> 2696.00
16:32:35:649 -> 2486.00
16:32:35:666 -> 2264.00
16:32:35:666 -> 2584.00
16:32:35:666 -> 2580.00
16:32:35:666 -> 2647.00
16:32:35:666 -> 2495.00
16:32:35:666 -> 2579.00
16:32:35:666 -> 2486.00
16:32:35:666 -> 2259.00
16:32:35:666 -> 2519.00
16:32:35:666 -> 2540.00
16:32:35:666 -> 2557.00
16:32:35:666 -> 2555.00
16:32:35:666 -> 2506.00
16:32:35:666 -> 2604.00
16:32:35:666 -> 2572.00
16:32:35:666 -> 2579.00
16:32:35:666 -> 2620.00
16:32:35:666 -> 2632.00
16:32:35:666 -> 2630.00
16:32:35:666 -> 2346.00
16:32:35:666 -> 2310.00
16:32:35:666 -> 2443.00
16:32:35:666 -> 2480.00
16:32:35:666 -> 2636.00
16:32:35:666 -> 2620.00
16:32:35:666 -> 2739.00
16:32:35:666 -> 2692.00
16:32:35:666 -> 2466.00
16:32:35:666 -> 2454.00
16:32:35:666 -> 2782.00
16:32:35:666 -> 2787.00
16:32:35:671 -> 2760.00
16:32:35:671 -> 2645.00
16:32:35:671 -> 2221.00
16:32:35:671 -> 2481.00
16:32:35:671 -> 2593.00
16:32:35:671 -> 2583.00
16:32:35:671 -> 2520.00
16:32:35:708 -> 2532.00
16:32:35:708 -> 2560.00
16:32:35:708 -> 2469.00
16:32:35:708 -> 2545.00
16:32:35:708 -> 2581.00
16:32:35:708 -> 2567.00
16:32:35:708 -> 2486.00
16:32:35:708 -> 2433.00
16:32:35:708 -> 2496.00
16:32:35:708 -> 2516.00
16:32:35:708 -> 2420.00
16:32:35:708 -> 2565.00
16:32:35:708 -> 2664.00
16:32:35:708 -> 2648.00
16:32:35:708 -> 2544.00
16:32:35:708 -> 2609.00
16:32:35:708 -> 2649.00
16:32:35:708 -> 2699.00
16:32:35:708 -> 2533.00
16:32:35:708 -> 2424.00
16:32:35:708 -> 2432.00
16:32:35:708 -> 2466.00
16:32:35:708 -> 2437.00
16:32:35:727 -> 2547.00
16:32:35:727 -> 2611.00
16:32:35:727 -> 2572.00
16:32:35:727 -> 2634.00
16:32:35:727 -> 2583.00
16:32:35:727 -> 2481.00
16:32:35:727 -> 2463.00
16:32:35:727 -> 2672.00
16:32:35:727 -> 2660.00
16:32:35:727 -> 2667.00
16:32:35:727 -> 2361.00
16:32:35:727 -> 2404.00
16:32:35:727 -> 2644.00
16:32:35:727 -> 2655.00
16:32:35:727 -> 2534.00
16:32:35:727 -> 2395.00
16:32:35:727 -> 2308.00
16:32:35:727 -> 2447.00
16:32:35:727 -> 2688.00
16:32:35:727 -> 2695.00
16:32:35:727 -> 2641.00
16:32:35:727 -> 2584.00
16:32:35:727 -> 2520.00
16:32:35:727 -> 2739.00
16:32:35:738 -> 2728.00
16:32:35:738 -> 2665.00
16:32:35:738 -> 2590.00
16:32:35:738 -> 2431.00
16:32:35:738 -> 2556.00
16:32:35:738 -> 2464.00
16:32:35:738 -> 2612.00
16:32:35:738 -> 2636.00
16:32:35:738 -> 2525.00
16:32:35:743 -> 2565.00
16:32:35:743 -> 2515.00
16:32:35:743 -> 2428.00
16:32:35:743 -> 2469.00
16:32:35:743 -> 2480.00
16:32:35:764 -> 2741.00
16:32:35:764 -> 2719.00
16:32:35:764 -> 2673.00
16:32:35:764 -> 2468.00
16:32:35:764 -> 2407.00
16:32:35:764 -> 2436.00
16:32:35:764 -> 2506.00
16:32:35:764 -> 2674.00
16:32:35:764 -> 2684.00
16:32:35:764 -> 2543.00
16:32:35:764 -> 2414.00
16:32:35:764 -> 2525.00
16:32:35:768 -> 2481.00
16:32:35:768 -> 2463.00
16:32:35:768 -> 2485.00
16:32:35:768 -> 2464.00
16:32:35:768 -> 2522.00
16:32:35:768 -> 2510.00
16:32:35:768 -> 2549.00
16:32:35:768 -> 2746.00
16:32:35:771 -> 2728.00
16:32:35:771 -> 2705.00
16:32:35:771 -> 2641.00
16:32:35:772 -> 2609.00
16:32:35:773 -> 2639.00
16:32:35:788 -> 2505.00
16:32:35:788 -> 2513.00
16:32:35:788 -> 2491.00
16:32:35:788 -> 2664.00
16:32:35:788 -> 2455.00
16:32:35:788 -> 2458.00
16:32:35:788 -> 2406.00
16:32:35:788 -> 2431.00
16:32:35:788 -> 2654.00
16:32:35:788 -> 2571.00
16:32:35:788 -> 2494.00
16:32:35:788 -> 2443.00
16:32:35:790 -> 2548.00
16:32:35:790 -> 2635.00
16:32:35:791 -> 2680.00
16:32:35:792 -> 2737.00
16:32:35:793 -> 2663.00
16:32:35:795 -> 2414.00
16:32:35:796 -> 2407.00
16:32:35:797 -> 2638.00
16:32:35:798 -> 2630.00
16:32:35:799 -> 2734.00
16:32:35:800 -> 2532.00
16:32:35:802 -> 2594.00
16:32:35:803 -> 2651.00
16:32:35:804 -> 2765.00
16:32:35:805 -> 2677.00
16:32:35:807 -> 2604.00
16:32:35:808 -> 2315.00
16:32:35:809 -> 2339.00
16:32:35:810 -> 2567.00
16:32:35:811 -> 2620.00
16:32:35:812 -> 2664.00
16:32:35:813 -> 2631.00
16:32:35:815 -> 2643.00
16:32:35:816 -> 2558.00
16:32:35:817 -> 2431.00
16:32:35:818 -> 2398.00
16:32:35:819 -> 2297.00
16:32:35:821 -> 2590.00
16:32:35:822 -> 2624.00
16:32:35:824 -> 2599.00
16:32:35:824 -> 2520.00
16:32:35:825 -> 2527.00
16:32:35:834 -> 2558.00
16:32:35:834 -> 2525.00
16:32:35:834 -> 2555.00
16:32:35:834 -> 2597.00
16:32:35:834 -> 2638.00
16:32:35:834 -> 2670.00
16:32:35:835 -> 2586.00
16:32:35:835 -> 2428.00
16:32:35:836 -> 2470.00
16:32:35:837 -> 2546.00
16:32:35:838 -> 2569.00
16:32:35:842 -> 2511.00
16:32:35:842 -> 2373.00
16:32:35:842 -> 2441.00
16:32:35:843 -> 2460.00
16:32:35:845 -> 2731.00
16:32:35:850 -> 2782.00
16:32:35:850 -> 2780.00
16:32:35:850 -> 2515.00
16:32:35:850 -> 2513.00
16:32:35:857 -> 2644.00
16:32:35:857 -> 2707.00
16:32:35:857 -> 2669.00
16:32:35:857 -> 2504.00
16:32:35:857 -> 2256.00
16:32:35:857 -> 2546.00
16:32:35:863 -> 2715.00
16:32:35:863 -> 2763.00
16:32:35:863 -> 2662.00
16:32:35:863 -> 2463.00
16:32:35:863 -> 2430.00
16:32:35:863 -> 2492.00
16:32:35:873 -> 2399.00
16:32:35:873 -> 2447.00
16:32:35:873 -> 2570.00
16:32:35:873 -> 2697.00
16:32:35:873 -> 2803.00
16:32:35:873 -> 2742.00
16:32:35:877 -> 2470.00
16:32:35:877 -> 2413.00
16:32:35:877 -> 2259.00
16:32:35:877 -> 2222.00
16:32:35:877 -> 2494.00
16:32:35:878 -> 2684.00
16:32:35:881 -> 2578.00
16:32:35:881 -> 2505.00
16:32:35:886 -> 2635.00
16:32:35:886 -> 2782.00
16:32:35:886 -> 2703.00
16:32:35:886 -> 2542.00
16:32:35:891 -> 2462.00
16:32:35:891 -> 2553.00
16:32:35:891 -> 2540.00
16:32:35:891 -> 2631.00
16:32:35:892 -> 2553.00
16:32:35:892 -> 2560.00
16:32:35:895 -> 2564.00
16:32:35:895 -> 2600.00
16:32:35:901 -> 2571.00
16:32:35:901 -> 2531.00
16:32:35:901 -> 2316.00
16:32:35:901 -> 2399.00
16:32:35:901 -> 2622.00
16:32:35:903 -> 2580.00
16:32:35:903 -> 2501.00
16:32:35:905 -> 2532.00
16:32:35:905 -> 2615.00
16:32:35:906 -> 2772.00
16:32:35:907 -> 2754.00
16:32:35:909 -> 2717.00
16:32:35:910 -> 2702.00
16:32:35:911 -> 2421.00
16:32:35:912 -> 2482.00
16:32:35:917 -> 2495.00
16:32:35:917 -> 2563.00
16:32:35:917 -> 2544.00
16:32:35:917 -> 2586.00
16:32:35:920 -> 2476.00
16:32:35:920 -> 2274.00
16:32:35:921 -> 2429.00
16:32:35:922 -> 2632.00
16:32:35:923 -> 2645.00
16:32:35:925 -> 2642.00
16:32:35:942 -> 2584.00
16:32:35:942 -> 2641.00
16:32:35:942 -> 2725.00
16:32:35:942 -> 2733.00
16:32:35:942 -> 2612.00
16:32:35:942 -> 2581.00
16:32:35:942 -> 2463.00
16:32:35:942 -> 2479.00
16:32:35:942 -> 2513.00
16:32:35:942 -> 2540.00
16:32:35:942 -> 2436.00
16:32:35:942 -> 2546.00
16:32:35:942 -> 2439.00
16:32:35:942 -> 2489.00
16:32:35:946 -> 2684.00
16:32:35:946 -> 2567.00
16:32:35:946 -> 2514.00
16:32:35:946 -> 2562.00
16:32:35:947 -> 2628.00
16:32:35:950 -> 2668.00
16:32:35:950 -> 2636.00
16:32:35:951 -> 2655.00
16:32:35:951 -> 2494.00
16:32:35:953 -> 2653.00
16:32:35:959 -> 2565.00
16:32:35:959 -> 2596.00
16:32:35:959 -> 2473.00
16:32:35:961 -> 2546.00
16:32:35:961 -> 2481.00
16:32:35:961 -> 2542.00
16:32:35:961 -> 2538.00
16:32:35:962 -> 2611.00
16:32:35:965 -> 2552.00
16:32:35:965 -> 2597.00
16:32:35:968 -> 2640.00
16:32:35:968 -> 2611.00
16:32:35:970 -> 2576.00
16:32:35:970 -> 2514.00
16:32:35:971 -> 2488.00
16:32:35:972 -> 2552.00
16:32:35:974 -> 2700.00
16:32:35:974 -> 2725.00
16:32:35:975 -> 2554.00
16:32:35:976 -> 2517.00
16:32:35:978 -> 2478.00
16:32:35:979 -> 2529.00
16:32:35:980 -> 2409.00
16:32:35:981 -> 2494.00
16:32:35:984 -> 2633.00
16:32:35:984 -> 2852.00
16:32:35:986 -> 2759.00
16:32:35:986 -> 2568.00
16:32:35:992 -> 2532.00
16:32:35:992 -> 2511.00
16:32:35:992 -> 2562.00
16:32:35:992 -> 2645.00
16:32:35:992 -> 2655.00
16:32:35:994 -> 2610.00
16:32:35:995 -> 2714.00
16:32:35:996 -> 2644.00
16:32:35:997 -> 2534.00
16:32:35:999 -> 2551.00
16:32:36:001 -> 2617.00
16:32:36:001 -> 2472.00
16:32:36:001 -> 2434.00
16:32:36:009 -> 2515.00
16:32:36:009 -> 2411.00
16:32:36:009 -> 2336.00
16:32:36:009 -> 2569.00
16:32:36:009 -> 2631.00
16:32:36:011 -> 2730.00
16:32:36:011 -> 2777.00
16:32:36:012 -> 2832.00
16:32:36:012 -> 2627.00
16:32:36:013 -> 2562.00
16:32:36:015 -> 2642.00
16:32:36:016 -> 2534.00
16:32:36:017 -> 2454.00
16:32:36:018 -> 2513.00
16:32:36:019 -> 2542.00
16:32:36:021 -> 2445.00
16:32:36:023 -> 2725.00
16:32:36:023 -> 2789.00
16:32:36:024 -> 2664.00
16:32:36:025 -> 2458.00
16:32:36:033 -> 2522.00
16:32:36:033 -> 2570.00
16:32:36:033 -> 2562.00
16:32:36:033 -> 2603.00
16:32:36:033 -> 2650.00
16:32:36:033 -> 2642.00
16:32:36:036 -> 2511.00
16:32:36:036 -> 2494.00
16:32:36:045 -> 2648.00
16:32:36:045 -> 2541.00
16:32:36:045 -> 2452.00
16:32:36:045 -> 2600.00
16:32:36:045 -> 2564.00
16:32:36:045 -> 2585.00
16:32:36:045 -> 2554.00
16:32:36:051 -> 2566.00
16:32:36:051 -> 2560.00
16:32:36:051 -> 2534.00
16:32:36:051 -> 2652.00
16:32:36:051 -> 2743.00
16:32:36:051 -> 2795.00
16:32:36:057 -> 2795.00
16:32:36:057 -> 2702.00
16:32:36:057 -> 2452.00
16:32:36:057 -> 2559.00
16:32:36:057 -> 2445.00
16:32:36:059 -> 2475.00
16:32:36:059 -> 2481.00
16:32:36:061 -> 2467.00
16:32:36:063 -> 2494.00
16:32:36:063 -> 2617.00
16:32:36:066 -> 2812.00
16:32:36:066 -> 2660.00
16:32:36:066 -> 2439.00
16:32:36:067 -> 2530.00
16:32:36:068 -> 2632.00
16:32:36:070 -> 2657.00
16:32:36:071 -> 2599.00
16:32:36:072 -> 2586.00
16:32:36:073 -> 2741.00
16:32:36:074 -> 2648.00
16:32:36:075 -> 2503.00
16:32:36:076 -> 2503.00
16:32:36:078 -> 2549.00
16:32:36:079 -> 2558.00
16:32:36:083 -> 2614.00
16:32:36:083 -> 2631.00
16:32:36:083 -> 2514.00
16:32:36:087 -> 2543.00
16:32:36:087 -> 2610.00
16:32:36:087 -> 2635.00
16:32:36:087 -> 2599.00
16:32:36:091 -> 2546.00
16:32:36:091 -> 2540.00
16:32:36:091 -> 2609.00
16:32:36:096 -> 2740.00
16:32:36:096 -> 2811.00
16:32:36:096 -> 2705.00
16:32:36:096 -> 2590.00
16:32:36:099 -> 2351.00
16:32:36:099 -> 2368.00
16:32:36:100 -> 2616.00
16:32:36:118 -> 2624.00
16:32:36:118 -> 2537.00
16:32:36:118 -> 2652.00
16:32:36:131 -> 2673.00
16:32:36:131 -> 2644.00
16:32:36:131 -> 2702.00
16:32:36:131 -> 2507.00
16:32:36:131 -> 2577.00
16:32:36:131 -> 2629.00
16:32:36:131 -> 2623.00
16:32:36:131 -> 2606.00
16:32:36:131 -> 2593.00
16:32:36:131 -> 2621.00
16:32:36:131 -> 2625.00
16:32:36:131 -> 2432.00
16:32:36:131 -> 2531.00
16:32:36:131 -> 2608.00
16:32:36:131 -> 2566.00
16:32:36:131 -> 2613.00
16:32:36:131 -> 2681.00
16:32:36:134 -> 2729.00
16:32:36:134 -> 2781.00
16:32:36:134 -> 2690.00
16:32:36:134 -> 2484.00
16:32:36:134 -> 2553.00
16:32:36:134 -> 2551.00
16:32:36:134 -> 2640.00
16:32:36:134 -> 2684.00
16:32:36:134 -> 2689.00
16:32:36:139 -> 2656.00
16:32:36:139 -> 2575.00
16:32:36:139 -> 2542.00
16:32:36:139 -> 2562.00
16:32:36:140 -> 2537.00
16:32:36:145 -> 2588.00
16:32:36:145 -> 2519.00
16:32:36:145 -> 2604.00
16:32:36:180 -> 2714.00
16:32:36:180 -> 2866.00
16:32:36:180 -> 2739.00
16:32:36:190 -> 2710.00
16:32:36:190 -> 2494.00
16:32:36:190 -> 2579.00
16:32:36:190 -> 2622.00
16:32:36:190 -> 2517.00
16:32:36:190 -> 2516.00
16:32:36:190 -> 2563.00
16:32:36:190 -> 2645.00
16:32:36:190 -> 2677.00
16:32:36:190 -> 2576.00
16:32:36:190 -> 2584.00
16:32:36:190 -> 2693.00
16:32:36:190 -> 2669.00
16:32:36:190 -> 2642.00
16:32:36:190 -> 2594.00
16:32:36:190 -> 2651.00
16:32:36:190 -> 2515.00
16:32:36:190 -> 2510.00
16:32:36:190 -> 2510.00
16:32:36:190 -> 2603.00
16:32:36:190 -> 2632.00
16:32:36:190 -> 2714.00
16:32:36:190 -> 2644.00
16:32:36:190 -> 2676.00
16:32:36:190 -> 2736.00
16:32:36:190 -> 2589.00
16:32:36:190 -> 2422.00
16:32:36:190 -> 2549.00
16:32:36:190 -> 2517.00
16:32:36:197 -> 2497.00
16:32:36:197 -> 2461.00
16:32:36:197 -> 2507.00
16:32:36:197 -> 2697.00
16:32:36:197 -> 2705.00
16:32:36:197 -> 2694.00
16:32:36:197 -> 2754.00
16:32:36:197 -> 2760.00
16:32:36:197 -> 2678.00
16:32:36:197 -> 2645.00
16:32:36:197 -> 2284.00
16:32:36:197 -> 2405.00
16:32:36:197 -> 2619.00
16:32:36:199 -> 2653.00
16:32:36:200 -> 2589.00
16:32:36:200 -> 2700.00
16:32:36:201 -> 2750.00
16:32:36:203 -> 2669.00
16:32:36:204 -> 2760.00
16:32:36:206 -> 2780.00
16:32:36:209 -> 2521.00
16:32:36:209 -> 2397.00
16:32:36:209 -> 2507.00
16:32:36:295 -> 2665.00
16:32:36:295 -> 2739.00
16:32:36:295 -> 2688.00
16:32:36:295 -> 2605.00
16:32:36:295 -> 2404.00
16:32:36:295 -> 2367.00
16:32:36:295 -> 2621.00
16:32:36:295 -> 2691.00
16:32:36:295 -> 2755.00
16:32:36:295 -> 2592.00
16:32:36:295 -> 2588.00
16:32:36:295 -> 2557.00
16:32:36:295 -> 2590.00
16:32:36:295 -> 2624.00
16:32:36:295 -> 2665.00
16:32:36:295 -> 2653.00
16:32:36:295 -> 2653.00
16:32:36:295 -> 2582.00
16:32:36:295 -> 2552.00
16:32:36:295 -> 2760.00
16:32:36:295 -> 2895.00
16:32:36:295 -> 2947.00
16:32:36:295 -> 2744.00
16:32:36:295 -> 2556.00
16:32:36:295 -> 2440.00
16:32:36:295 -> 2416.00
16:32:36:295 -> 2509.00
16:32:36:295 -> 2534.00
16:32:36:295 -> 2499.00
16:32:36:295 -> 2550.00
16:32:36:335 -> 2594.00
16:32:36:335 -> 2628.00
16:32:36:335 -> 2604.00
16:32:36:335 -> 2556.00
16:32:36:335 -> 2635.00
16:32:36:335 -> 2621.00
16:32:36:335 -> 2641.00
16:32:36:335 -> 2595.00
16:32:36:335 -> 2626.00
16:32:36:335 -> 2670.00
16:32:36:335 -> 2710.00
16:32:36:335 -> 2564.00
16:32:36:335 -> 2376.00
16:32:36:335 -> 2540.00
16:32:36:335 -> 2673.00
16:32:36:335 -> 2718.00
16:32:36:335 -> 2603.00
16:32:36:335 -> 2593.00
16:32:36:335 -> 2646.00
16:32:36:335 -> 2620.00
16:32:36:335 -> 2666.00
16:32:36:335 -> 2990.00
16:32:36:335 -> 2890.00
16:32:36:335 -> 2762.00
16:32:36:335 -> 2284.00
16:32:36:335 -> 2376.00
16:32:36:335 -> 2662.00
16:32:36:335 -> 2734.00
16:32:36:335 -> 2919.00
16:32:36:335 -> 2686.00
16:32:36:335 -> 2560.00
16:32:36:335 -> 2497.00
16:32:36:335 -> 2553.00
16:32:36:335 -> 2581.00
16:32:36:335 -> 2630.00
16:32:36:335 -> 2606.00
16:32:36:335 -> 2588.00
16:32:36:335 -> 2619.00
16:32:36:335 -> 2648.00
16:32:36:335 -> 2629.00
16:32:36:335 -> 2670.00
16:32:36:335 -> 2620.00
16:32:36:335 -> 2648.00
16:32:36:335 -> 2616.00
16:32:36:335 -> 2553.00
16:32:36:335 -> 2526.00
16:32:36:335 -> 2590.00
16:32:36:335 -> 2783.00
16:32:36:335 -> 2754.00
16:32:36:335 -> 2722.00
16:32:36:335 -> 2594.00
16:32:36:335 -> 2588.00
16:32:36:335 -> 2612.00
16:32:36:335 -> 2610.00
16:32:36:335 -> 2609.00
16:32:36:335 -> 2659.00
16:32:36:335 -> 2638.00
16:32:36:335 -> 2672.00
16:32:36:335 -> 2662.00
16:32:36:335 -> 2534.00
16:32:36:335 -> 2448.00
16:32:36:335 -> 2579.00
16:32:36:335 -> 2687.00
16:32:36:335 -> 2703.00
16:32:36:335 -> 2618.00
16:32:36:335 -> 2561.00
16:32:36:335 -> 2604.00
16:32:36:335 -> 2727.00
16:32:36:335 -> 2850.00
16:32:36:335 -> 2818.00
16:32:36:335 -> 2765.00
16:32:36:335 -> 2577.00
16:32:36:335 -> 2661.00
16:32:36:335 -> 2709.00
16:32:36:335 -> 2751.00
16:32:36:335 -> 2911.00
16:32:36:341 -> 2431.00
16:32:36:341 -> 2146.00
16:32:36:341 -> 2413.00
16:32:36:341 -> 2660.00
16:32:36:341 -> 2684.00
16:32:36:353 -> 2596.00
16:32:36:353 -> 2565.00
16:32:36:353 -> 2674.00
16:32:36:353 -> 2761.00
16:32:36:353 -> 2743.00
16:32:36:353 -> 2665.00
16:32:36:353 -> 2591.00
16:32:36:353 -> 2706.00
16:32:36:353 -> 2816.00
16:32:36:353 -> 2653.00
16:32:36:355 -> 2495.00
16:32:36:355 -> 2541.00
16:32:36:359 -> 2547.00
16:32:36:359 -> 2521.00
16:32:36:359 -> 2609.00
16:32:36:363 -> 2695.00
16:32:36:363 -> 2818.00
16:32:36:363 -> 2757.00
16:32:36:363 -> 2524.00
16:32:36:366 -> 2642.00
16:32:36:367 -> 2629.00
16:32:36:367 -> 2608.00
16:32:36:368 -> 2722.00
16:32:36:370 -> 2754.00
16:32:36:370 -> 2770.00
16:32:36:372 -> 2561.00
16:32:36:373 -> 2453.00
16:32:36:374 -> 2533.00
16:32:36:375 -> 2630.00
16:32:36:382 -> 2624.00
16:32:36:390 -> 2579.00
16:32:36:390 -> 2642.00
16:32:36:390 -> 2670.00
16:32:36:390 -> 2676.00
16:32:36:390 -> 2608.00
16:32:36:390 -> 2522.00
16:32:36:390 -> 2629.00
16:32:36:390 -> 2661.00
16:32:36:390 -> 2686.00
16:32:36:390 -> 2725.00
16:32:36:390 -> 2653.00
16:32:36:391 -> 2561.00
16:32:36:392 -> 2465.00
16:32:36:393 -> 2595.00
16:32:36:395 -> 2762.00
16:32:36:395 -> 2647.00
16:32:36:399 -> 2590.00
16:32:36:399 -> 2590.00
16:32:36:399 -> 2574.00
16:32:36:402 -> 2656.00
16:32:36:402 -> 2673.00
16:32:36:405 -> 2710.00
16:32:36:405 -> 2841.00
16:32:36:407 -> 2838.00
16:32:36:407 -> 2877.00
16:32:36:409 -> 2687.00
16:32:36:415 -> 2645.00
16:32:36:415 -> 2661.00
16:32:36:415 -> 2549.00
16:32:36:415 -> 2481.00
16:32:36:415 -> 2659.00
16:32:36:415 -> 2733.00
16:32:36:419 -> 2792.00
16:32:36:419 -> 2695.00
16:32:36:419 -> 2663.00
16:32:36:419 -> 2621.00
16:32:36:423 -> 2628.00
16:32:36:423 -> 2586.00
16:32:36:460 -> 2677.00
16:32:36:460 -> 2617.00
16:32:36:460 -> 2534.00
16:32:36:460 -> 2698.00
16:32:36:460 -> 2764.00
16:32:36:460 -> 2786.00
16:32:36:460 -> 2582.00
16:32:36:460 -> 2619.00
16:32:36:460 -> 2678.00
16:32:36:460 -> 2660.00
16:32:36:460 -> 2626.00
16:32:36:460 -> 2577.00
16:32:36:460 -> 2668.00
16:32:36:460 -> 2537.00
16:32:36:460 -> 2619.00
16:32:36:460 -> 2748.00
16:32:36:460 -> 2799.00
16:32:36:460 -> 2726.00
16:32:36:460 -> 2519.00
16:32:36:460 -> 2505.00
16:32:36:460 -> 2645.00
16:32:36:460 -> 2674.00
16:32:36:460 -> 2709.00
16:32:36:460 -> 2550.00
16:32:36:460 -> 2607.00
16:32:36:460 -> 2636.00
16:32:36:460 -> 2717.00
16:32:36:460 -> 2789.00
16:32:36:460 -> 2746.00
16:32:36:460 -> 2597.00
16:32:36:460 -> 2626.00
16:32:36:460 -> 2625.00
16:32:36:475 -> 2648.00
16:32:36:475 -> 2704.00
16:32:36:475 -> 2635.00
16:32:36:475 -> 2804.00
16:32:36:475 -> 2776.00
16:32:36:475 -> 2726.00
16:32:36:475 -> 2633.00
16:32:36:475 -> 2528.00
16:32:36:475 -> 2545.00
16:32:36:475 -> 2643.00
16:32:36:475 -> 2631.00
16:32:36:475 -> 2625.00
16:32:36:492 -> 2545.00
16:32:36:492 -> 2606.00
16:32:36:492 -> 2646.00
16:32:36:492 -> 2752.00
16:32:36:492 -> 2786.00
16:32:36:492 -> 2738.00
16:32:36:492 -> 2728.00
16:32:36:492 -> 2699.00
16:32:36:492 -> 2637.00
16:32:36:492 -> 2758.00
16:32:36:492 -> 2755.00
16:32:36:492 -> 2659.00
16:32:36:492 -> 2604.00
16:32:36:492 -> 2638.00
16:32:36:507 -> 2758.00
16:32:36:507 -> 2725.00
16:32:36:507 -> 2600.00
16:32:36:507 -> 2590.00
16:32:36:507 -> 2589.00
16:32:36:507 -> 2590.00
16:32:36:507 -> 2619.00
16:32:36:507 -> 2544.00
16:32:36:507 -> 2611.00
16:32:36:507 -> 2646.00
16:32:36:507 -> 2685.00
16:32:36:507 -> 2765.00
16:32:36:507 -> 2769.00
16:32:36:507 -> 2716.00
16:32:36:521 -> 2704.00
16:32:36:521 -> 2698.00
16:32:36:521 -> 2731.00
16:32:36:521 -> 2785.00
16:32:36:521 -> 2581.00
16:32:36:521 -> 2551.00
16:32:36:521 -> 2664.00
16:32:36:521 -> 2692.00
16:32:36:521 -> 2678.00
16:32:36:521 -> 2630.00
16:32:36:521 -> 2528.00
16:32:36:524 -> 2634.00
16:32:36:524 -> 2742.00
16:32:36:524 -> 2752.00
16:32:36:533 -> 2729.00
16:32:36:533 -> 2770.00
16:32:36:533 -> 2664.00
16:32:36:533 -> 2736.00
16:32:36:533 -> 2543.00
16:32:36:533 -> 2616.00
16:32:36:533 -> 2689.00
16:32:36:536 -> 2831.00
16:32:36:536 -> 2896.00
16:32:36:536 -> 2893.00
16:32:36:538 -> 2863.00
16:32:36:541 -> 2458.00
16:32:36:541 -> 2435.00
16:32:36:541 -> 2517.00
16:32:36:542 -> 2604.00
16:32:36:543 -> 2617.00
16:32:36:544 -> 2553.00
16:32:36:545 -> 2795.00
16:32:36:547 -> 2823.00
16:32:36:548 -> 2874.00
16:32:36:549 -> 2667.00
16:32:36:550 -> 2468.00
16:32:36:551 -> 2620.00
16:32:36:555 -> 2651.00
16:32:36:558 -> 2614.00
16:32:36:558 -> 2629.00
16:32:36:558 -> 2668.00
16:32:36:558 -> 2931.00
16:32:36:563 -> 2666.00
16:32:36:564 -> 2648.00
16:32:36:564 -> 2784.00
16:32:36:564 -> 2808.00
16:32:36:564 -> 2520.00
16:32:36:565 -> 2612.00
16:32:36:566 -> 2659.00
16:32:36:567 -> 2711.00
16:32:36:568 -> 2728.00
16:32:36:569 -> 2655.00
16:32:36:570 -> 2658.00
16:32:36:572 -> 2717.00
16:32:36:573 -> 2723.00
16:32:36:574 -> 2656.00
16:32:36:575 -> 2665.00
16:32:36:576 -> 2767.00
16:32:36:578 -> 2650.00
16:32:36:579 -> 2746.00
16:32:36:580 -> 2790.00
16:32:36:596 -> 2672.00
16:32:36:596 -> 2688.00
16:32:36:596 -> 2676.00
16:32:36:596 -> 2667.00
16:32:36:596 -> 2525.00
16:32:36:596 -> 2435.00
16:32:36:596 -> 2544.00
16:32:36:596 -> 2622.00
16:32:36:596 -> 2734.00
16:32:36:596 -> 2728.00
16:32:36:596 -> 2770.00
16:32:36:596 -> 2863.00
16:32:36:596 -> 2965.00
16:32:36:599 -> 2727.00
16:32:36:599 -> 2496.00
16:32:36:599 -> 2351.00
16:32:36:601 -> 2600.00
16:32:36:601 -> 2761.00
16:32:36:602 -> 2702.00
16:32:36:604 -> 2819.00
16:32:36:605 -> 2728.00
16:32:36:606 -> 2646.00
16:32:36:607 -> 2711.00
16:32:36:608 -> 2725.00
16:32:36:610 -> 2737.00
16:32:36:611 -> 2704.00
16:32:36:612 -> 2678.00
16:32:36:613 -> 2699.00
16:32:36:614 -> 2717.00
16:32:36:616 -> 2635.00
16:32:36:617 -> 2635.00
16:32:36:618 -> 2653.00
16:32:36:619 -> 2779.00
16:32:36:620 -> 2663.00
16:32:36:622 -> 2676.00
16:32:36:623 -> 2701.00
16:32:36:624 -> 2568.00
16:32:36:625 -> 2684.00
16:32:36:626 -> 2803.00
16:32:36:628 -> 2991.00
16:32:36:629 -> 2864.00
16:32:36:630 -> 2767.00
16:32:36:631 -> 2414.00
16:32:36:632 -> 2639.00
16:32:36:633 -> 2686.00
16:32:36:635 -> 2737.00
16:32:36:636 -> 2731.00
16:32:36:637 -> 2807.00
16:32:36:639 -> 2694.00
16:32:36:641 -> 2645.00
16:32:36:641 -> 2574.00
16:32:36:642 -> 2372.00
16:32:36:643 -> 2665.00
16:32:36:645 -> 2705.00
16:32:36:647 -> 2724.00
16:32:36:647 -> 2853.00
16:32:36:648 -> 2934.00
16:32:36:649 -> 2852.00
16:32:36:650 -> 2764.00
16:32:36:651 -> 2524.00
16:32:36:652 -> 2584.00
16:32:36:654 -> 2601.00
16:32:36:655 -> 2616.00
16:32:36:657 -> 2477.00
16:32:36:669 -> 2487.00
16:32:36:669 -> 2615.00
16:32:36:669 -> 2771.00
16:32:36:669 -> 2828.00
16:32:36:669 -> 2832.00
16:32:36:669 -> 2772.00
16:32:36:669 -> 2597.00
16:32:36:669 -> 2669.00
16:32:36:669 -> 2754.00
16:32:36:669 -> 2774.00
16:32:36:669 -> 2690.00
16:32:36:674 -> 2726.00
16:32:36:674 -> 2707.00
16:32:36:674 -> 2640.00
16:32:36:674 -> 2575.00
16:32:36:676 -> 2621.00
16:32:36:715 -> 2685.00
16:32:36:715 -> 2700.00
16:32:36:715 -> 2675.00
16:32:36:715 -> 2779.00
16:32:36:715 -> 2865.00
16:32:36:715 -> 2827.00
16:32:36:715 -> 2732.00
16:32:36:715 -> 2560.00
16:32:36:752 -> 2706.00
16:32:36:752 -> 2823.00
16:32:36:752 -> 2724.00
16:32:36:752 -> 2807.00
16:32:36:752 -> 2770.00
16:32:36:752 -> 2637.00
16:32:36:752 -> 2564.00
16:32:36:752 -> 2602.00
16:32:36:752 -> 2660.00
16:32:36:752 -> 2762.00
16:32:36:752 -> 2804.00
16:32:36:752 -> 2756.00
16:32:36:752 -> 2562.00
16:32:36:752 -> 2591.00
16:32:36:752 -> 2686.00
16:32:36:752 -> 2693.00
16:32:36:752 -> 2634.00
16:32:36:752 -> 2683.00
16:32:36:752 -> 2705.00
16:32:36:752 -> 2548.00
16:32:36:752 -> 2619.00
16:32:36:752 -> 2754.00
16:32:36:752 -> 2807.00
16:32:36:752 -> 2849.00
16:32:36:752 -> 2862.00
16:32:36:752 -> 2806.00
16:32:36:752 -> 2658.00
16:32:36:752 -> 2664.00
16:32:36:752 -> 2542.00
16:32:36:752 -> 2576.00
16:32:36:752 -> 2747.00
16:32:36:752 -> 2750.00
16:32:36:752 -> 2695.00
16:32:36:752 -> 2717.00
16:32:36:752 -> 2715.00
16:32:36:752 -> 2691.00
16:32:36:752 -> 2817.00
16:32:36:752 -> 2831.00
16:32:36:752 -> 2779.00
16:32:36:752 -> 2707.00
16:32:36:752 -> 2661.00
16:32:36:752 -> 2606.00
16:32:36:752 -> 2568.00
16:32:36:752 -> 2502.00
16:32:36:752 -> 2646.00
16:32:36:752 -> 2565.00
16:32:36:752 -> 2673.00
16:32:36:752 -> 2706.00
16:32:36:752 -> 2742.00
16:32:36:752 -> 2684.00
16:32:36:752 -> 2684.00
16:32:36:759 -> 2669.00
16:32:36:759 -> 2695.00
16:32:36:759 -> 2685.00
16:32:36:759 -> 2674.00
16:32:36:759 -> 2786.00
16:32:36:759 -> 2890.00
16:32:36:759 -> 2850.00
16:32:36:759 -> 2802.00
16:32:36:759 -> 2611.00
16:32:36:759 -> 2619.00
16:32:36:759 -> 2745.00
16:32:36:765 -> 2713.00
16:32:36:765 -> 2696.00
16:32:36:765 -> 2670.00
16:32:36:765 -> 2667.00
16:32:36:765 -> 2713.00
16:32:36:768 -> 2796.00
16:32:36:768 -> 2818.00
16:32:36:796 -> 2845.00
16:32:36:796 -> 2624.00
16:32:36:796 -> 2720.00
16:32:36:796 -> 2703.00
16:32:36:796 -> 2543.00
16:32:36:796 -> 2452.00
16:32:36:796 -> 2680.00
16:32:36:796 -> 2610.00
16:32:36:796 -> 2717.00
16:32:36:796 -> 2803.00
16:32:36:796 -> 2816.00
16:32:36:796 -> 2784.00
16:32:36:796 -> 2867.00
16:32:36:796 -> 2824.00
16:32:36:796 -> 2849.00
16:32:36:796 -> 2874.00
16:32:36:796 -> 2670.00
16:32:36:796 -> 2691.00
16:32:36:796 -> 2633.00
16:32:36:796 -> 2658.00
16:32:36:796 -> 2698.00
16:32:36:796 -> 2606.00
16:32:36:796 -> 2594.00
16:32:36:796 -> 2682.00
16:32:36:798 -> 2667.00
16:32:36:798 -> 2707.00
16:32:36:800 -> 2654.00
16:32:36:800 -> 2665.00
16:32:36:801 -> 2676.00
16:32:36:802 -> 2753.00
16:32:36:804 -> 2846.00
16:32:36:805 -> 2923.00
16:32:36:807 -> 2833.00
16:32:36:807 -> 2802.00
16:32:36:808 -> 2580.00
16:32:36:810 -> 2665.00
16:32:36:811 -> 2593.00
16:32:36:812 -> 2668.00
16:32:36:813 -> 2561.00
16:32:36:814 -> 2601.00
16:32:36:816 -> 2824.00
16:32:36:817 -> 2839.00
16:32:36:818 -> 2853.00
16:32:36:819 -> 2902.00
16:32:36:834 -> 2801.00
16:32:36:834 -> 2500.00
16:32:36:834 -> 2642.00
16:32:36:834 -> 2802.00
16:32:36:834 -> 2807.00
16:32:36:834 -> 2791.00
16:32:36:834 -> 2614.00
16:32:36:834 -> 2781.00
16:32:36:834 -> 2838.00
16:32:36:841 -> 2753.00
16:32:36:841 -> 2537.00
16:32:36:841 -> 2542.00
16:32:36:841 -> 2632.00
16:32:36:841 -> 2781.00
16:32:36:841 -> 2773.00
16:32:36:841 -> 2664.00
16:32:36:841 -> 2568.00
16:32:36:841 -> 2613.00
16:32:36:850 -> 2950.00
16:32:36:850 -> 2946.00
16:32:36:850 -> 2815.00
16:32:36:850 -> 2711.00
16:32:36:850 -> 2787.00
16:32:36:850 -> 2871.00
16:32:36:850 -> 2736.00
16:32:36:850 -> 2860.00
16:32:36:852 -> 2759.00
16:32:36:853 -> 2697.00
16:32:36:854 -> 2652.00
16:32:36:855 -> 2747.00
16:32:36:860 -> 2741.00
16:32:36:860 -> 2714.00
16:32:36:860 -> 2538.00
16:32:36:860 -> 2573.00
16:32:36:862 -> 2734.00
16:32:36:862 -> 2778.00
16:32:36:863 -> 2805.00
16:32:36:864 -> 2775.00
16:32:36:865 -> 2501.00
16:32:36:867 -> 2620.00
16:32:36:868 -> 2736.00
16:32:36:869 -> 2792.00
16:32:36:870 -> 2804.00
16:32:36:872 -> 2829.00
16:32:36:874 -> 2751.00
16:32:36:874 -> 2612.00
16:32:36:875 -> 2716.00
16:32:36:876 -> 2630.00
16:32:36:877 -> 2620.00
16:32:36:879 -> 2825.00
16:32:36:880 -> 2903.00
16:32:36:881 -> 2614.00
16:32:36:882 -> 2649.00
16:32:36:883 -> 2770.00
16:32:36:885 -> 2798.00
16:32:36:886 -> 2670.00
16:32:36:887 -> 2725.00
16:32:36:888 -> 2646.00
16:32:36:889 -> 2791.00
16:32:36:891 -> 2792.00
16:32:36:892 -> 2641.00
16:32:36:893 -> 2729.00
16:32:36:894 -> 2898.00
16:32:36:895 -> 2897.00
16:32:36:896 -> 2810.00
16:32:36:902 -> 2661.00
16:32:36:902 -> 2748.00
16:32:36:902 -> 2823.00
16:32:36:902 -> 2694.00
16:32:36:903 -> 2516.00
16:32:36:922 -> 2668.00
16:32:36:922 -> 2858.00
16:32:36:922 -> 2742.00
16:32:36:922 -> 2813.00
16:32:36:922 -> 2794.00
16:32:36:922 -> 2764.00
16:32:36:922 -> 2864.00
16:32:36:922 -> 2897.00
16:32:36:922 -> 2911.00
16:32:36:922 -> 2649.00
16:32:36:922 -> 2634.00
16:32:36:922 -> 2600.00
16:32:36:922 -> 2647.00
16:32:36:922 -> 2650.00
16:32:36:922 -> 2729.00
16:32:36:922 -> 2677.00
16:32:36:926 -> 2729.00
16:32:36:926 -> 2830.00
16:32:36:926 -> 2827.00
16:32:36:933 -> 2836.00
16:32:36:933 -> 2758.00
16:32:36:933 -> 2683.00
16:32:36:933 -> 2700.00
16:32:36:933 -> 2804.00
16:32:36:933 -> 2783.00
16:32:36:934 -> 2742.00
16:32:36:935 -> 2816.00
16:32:36:936 -> 2833.00
16:32:36:937 -> 2998.00
16:32:36:938 -> 2910.00
16:32:36:939 -> 2594.00
16:32:36:941 -> 2498.00
16:32:36:942 -> 2680.00
16:32:36:943 -> 2707.00
16:32:36:978 -> 2737.00
16:32:36:978 -> 2743.00
16:32:36:978 -> 2798.00
16:32:36:978 -> 2922.00
16:32:36:978 -> 2879.00
16:32:36:978 -> 2715.00
16:32:36:978 -> 2637.00
16:32:36:978 -> 2750.00
16:32:36:978 -> 2797.00
16:32:36:978 -> 3000.00
16:32:36:978 -> 2917.00
16:32:36:978 -> 2779.00
16:32:36:978 -> 2558.00
16:32:36:978 -> 2581.00
16:32:36:978 -> 2610.00
16:32:36:978 -> 2669.00
16:32:36:978 -> 2847.00
16:32:36:978 -> 2826.00
16:32:36:978 -> 2779.00
16:32:36:978 -> 2746.00
16:32:36:978 -> 2726.00
16:32:36:978 -> 2683.00
16:32:36:978 -> 2739.00
16:32:36:978 -> 2823.00
16:32:36:978 -> 2803.00
16:32:36:978 -> 2770.00
16:32:36:978 -> 2858.00
16:32:36:978 -> 2951.00
16:32:36:978 -> 2945.00
16:32:37:004 -> 2669.00
16:32:37:004 -> 2574.00
16:32:37:004 -> 2680.00
16:32:37:004 -> 2678.00
16:32:37:004 -> 2629.00
16:32:37:004 -> 2638.00
16:32:37:004 -> 2869.00
16:32:37:004 -> 2937.00
16:32:37:004 -> 2956.00
16:32:37:004 -> 2934.00
16:32:37:004 -> 2708.00
16:32:37:004 -> 2612.00
16:32:37:004 -> 2688.00
16:32:37:004 -> 2693.00
16:32:37:004 -> 2780.00
16:32:37:004 -> 2782.00
16:32:37:004 -> 2763.00
16:32:37:004 -> 2850.00
16:32:37:004 -> 2811.00
16:32:37:004 -> 2777.00
16:32:37:004 -> 2778.00
16:32:37:004 -> 2635.00
16:32:37:015 -> 2752.00
16:32:37:015 -> 2773.00
16:32:37:015 -> 2780.00
16:32:37:015 -> 2764.00
16:32:37:015 -> 2828.00
16:32:37:015 -> 2825.00
16:32:37:015 -> 2844.00
16:32:37:015 -> 2825.00
16:32:37:015 -> 2647.00
16:32:37:032 -> 2506.00
16:32:37:032 -> 2749.00
16:32:37:032 -> 2943.00
16:32:37:032 -> 2780.00
16:32:37:032 -> 2597.00
16:32:37:032 -> 2612.00
16:32:37:032 -> 2731.00
16:32:37:032 -> 2881.00
16:32:37:032 -> 2799.00
16:32:37:032 -> 2763.00
16:32:37:032 -> 2898.00
16:32:37:032 -> 2847.00
16:32:37:032 -> 2796.00
16:32:37:032 -> 2853.00
16:32:37:032 -> 2945.00
16:32:37:063 -> 2964.00
16:32:37:063 -> 2884.00
16:32:37:063 -> 2725.00
16:32:37:063 -> 2548.00
16:32:37:063 -> 2649.00
16:32:37:063 -> 2667.00
16:32:37:063 -> 2825.00
16:32:37:063 -> 2752.00
16:32:37:063 -> 2761.00
16:32:37:063 -> 2735.00
16:32:37:063 -> 2559.00
16:32:37:063 -> 2631.00
16:32:37:063 -> 2853.00
16:32:37:063 -> 2805.00
16:32:37:063 -> 2725.00
16:32:37:063 -> 2842.00
16:32:37:063 -> 2933.00
16:32:37:063 -> 2829.00
16:32:37:063 -> 2833.00
16:32:37:063 -> 2691.00
16:32:37:063 -> 2679.00
16:32:37:063 -> 2694.00
16:32:37:063 -> 2758.00
16:32:37:063 -> 2678.00
16:32:37:063 -> 2699.00
16:32:37:071 -> 2871.00
16:32:37:071 -> 2946.00
16:32:37:071 -> 2829.00
16:32:37:071 -> 2721.00
16:32:37:071 -> 2736.00
16:32:37:071 -> 2726.00
16:32:37:071 -> 2739.00
16:32:37:071 -> 2802.00
16:32:37:073 -> 2815.00
16:32:37:074 -> 2803.00
16:32:37:076 -> 2806.00
16:32:37:076 -> 2702.00
16:32:37:084 -> 2656.00
16:32:37:084 -> 2809.00
16:32:37:084 -> 2806.00
16:32:37:084 -> 2756.00
16:32:37:084 -> 2778.00
16:32:37:084 -> 2796.00
16:32:37:084 -> 2763.00
16:32:37:086 -> 2768.00
16:32:37:087 -> 2855.00
16:32:37:088 -> 2980.00
16:32:37:090 -> 2780.00
16:32:37:092 -> 2718.00
16:32:37:092 -> 2660.00
16:32:37:103 -> 2675.00
16:32:37:103 -> 2701.00
16:32:37:103 -> 2779.00
16:32:37:103 -> 2752.00
16:32:37:103 -> 2780.00
16:32:37:103 -> 2838.00
16:32:37:103 -> 2971.00
16:32:37:103 -> 2939.00
16:32:37:103 -> 2897.00
16:32:37:109 -> 2622.00
16:32:37:109 -> 2761.00
16:32:37:109 -> 2732.00
16:32:37:109 -> 2649.00
16:32:37:109 -> 2772.00
16:32:37:111 -> 2802.00
16:32:37:111 -> 2806.00
16:32:37:112 -> 2831.00
16:32:37:113 -> 2803.00
16:32:37:116 -> 2689.00
16:32:37:116 -> 2717.00
16:32:37:118 -> 2767.00
16:32:37:118 -> 2786.00
16:32:37:119 -> 2779.00
16:32:37:121 -> 2778.00
16:32:37:129 -> 2778.00
16:32:37:129 -> 2767.00
16:32:37:129 -> 2761.00
16:32:37:129 -> 2727.00
16:32:37:129 -> 2799.00
16:32:37:129 -> 2738.00
16:32:37:129 -> 2732.00
16:32:37:130 -> 2820.00
16:32:37:131 -> 2780.00
16:32:37:132 -> 2742.00
16:32:37:136 -> 2764.00
16:32:37:136 -> 2727.00
16:32:37:138 -> 2837.00
16:32:37:138 -> 2898.00
16:32:37:138 -> 2910.00
16:32:37:141 -> 2752.00
16:32:37:141 -> 2549.00
16:32:37:157 -> 2639.00
16:32:37:157 -> 2842.00
16:32:37:157 -> 2793.00
16:32:37:157 -> 2767.00
16:32:37:157 -> 2705.00
16:32:37:157 -> 2878.00
16:32:37:174 -> 2962.00
16:32:37:174 -> 2941.00
16:32:37:174 -> 2813.00
16:32:37:174 -> 2701.00
16:32:37:174 -> 2757.00
16:32:37:174 -> 2671.00
16:32:37:174 -> 2785.00
16:32:37:174 -> 2757.00
16:32:37:174 -> 2754.00
16:32:37:174 -> 2718.00
16:32:37:174 -> 2786.00
16:32:37:174 -> 2809.00
16:32:37:174 -> 2821.00
16:32:37:174 -> 2787.00
16:32:37:174 -> 2787.00
16:32:37:174 -> 2818.00
16:32:37:174 -> 2842.00
16:32:37:174 -> 2812.00
16:32:37:174 -> 2820.00
16:32:37:174 -> 2793.00
16:32:37:174 -> 2786.00
16:32:37:174 -> 2788.00
16:32:37:175 -> 2775.00
16:32:37:177 -> 2781.00
16:32:37:181 -> 2767.00
16:32:37:181 -> 2859.00
16:32:37:181 -> 2837.00
16:32:37:181 -> 2738.00
16:32:37:182 -> 2669.00
16:32:37:184 -> 2734.00
16:32:37:185 -> 2830.00
16:32:37:186 -> 2886.00
16:32:37:187 -> 2935.00
16:32:37:189 -> 3081.00
16:32:37:189 -> 2860.00
16:32:37:190 -> 2933.00
16:32:37:192 -> 2598.00
16:32:37:193 -> 2521.00
16:32:37:194 -> 2580.00
16:32:37:195 -> 2669.00
16:32:37:196 -> 2706.00
16:32:37:198 -> 2734.00
16:32:37:199 -> 2820.00
16:32:37:200 -> 2861.00
16:32:37:202 -> 2851.00
16:32:37:203 -> 2784.00
16:32:37:207 -> 2766.00
16:32:37:207 -> 2719.00
16:32:37:207 -> 2724.00
16:32:37:207 -> 2843.00
16:32:37:248 -> 2952.00
16:32:37:248 -> 2922.00
16:32:37:248 -> 2783.00
16:32:37:248 -> 2780.00
16:32:37:248 -> 2725.00
16:32:37:248 -> 2697.00
16:32:37:248 -> 2767.00
16:32:37:248 -> 2825.00
16:32:37:248 -> 2795.00
16:32:37:248 -> 2772.00
16:32:37:248 -> 2749.00
16:32:37:252 -> 2833.00
16:32:37:252 -> 2893.00
16:32:37:252 -> 2887.00
16:32:37:252 -> 2771.00
16:32:37:252 -> 2949.00
16:32:37:252 -> 2832.00
16:32:37:252 -> 2739.00
16:32:37:252 -> 2777.00
16:32:37:252 -> 2803.00
16:32:37:252 -> 2762.00
16:32:37:252 -> 2712.00
16:32:37:252 -> 2831.00
16:32:37:252 -> 2874.00
16:32:37:252 -> 2925.00
16:32:37:252 -> 2739.00
16:32:37:252 -> 2532.00
16:32:37:252 -> 2701.00
16:32:37:252 -> 2776.00
16:32:37:252 -> 2876.00
16:32:37:252 -> 2838.00
16:32:37:252 -> 2774.00
16:32:37:252 -> 2802.00
16:32:37:252 -> 2760.00
16:32:37:252 -> 2790.00
16:32:37:252 -> 2801.00
16:32:37:252 -> 2795.00
16:32:37:254 -> 2746.00
16:32:37:254 -> 2743.00
16:32:37:256 -> 2745.00
16:32:37:256 -> 2808.00
16:32:37:276 -> 2747.00
16:32:37:276 -> 2757.00
16:32:37:276 -> 2801.00
16:32:37:276 -> 2714.00
16:32:37:276 -> 2729.00
16:32:37:276 -> 2821.00
16:32:37:276 -> 2854.00
16:32:37:276 -> 2862.00
16:32:37:282 -> 2849.00
16:32:37:282 -> 2844.00
16:32:37:282 -> 2826.00
16:32:37:282 -> 2787.00
16:32:37:282 -> 2601.00
16:32:37:282 -> 2838.00
16:32:37:282 -> 2910.00
16:32:37:282 -> 2794.00
16:32:37:282 -> 2774.00
16:32:37:282 -> 2922.00
16:32:37:282 -> 2805.00
16:32:37:282 -> 2845.00
16:32:37:282 -> 2898.00
16:32:37:285 -> 2703.00
16:32:37:285 -> 2738.00
16:32:37:285 -> 2809.00
16:32:37:290 -> 2820.00
16:32:37:290 -> 2861.00
16:32:37:290 -> 2857.00
16:32:37:290 -> 2821.00
16:32:37:303 -> 2829.00
16:32:37:303 -> 2719.00
16:32:37:303 -> 2788.00
16:32:37:303 -> 2877.00
16:32:37:303 -> 2797.00
16:32:37:303 -> 2872.00
16:32:37:303 -> 3136.00
16:32:37:303 -> 3117.00
16:32:37:303 -> 2971.00
16:32:37:303 -> 2729.00
16:32:37:309 -> 2497.00
16:32:37:309 -> 2620.00
16:32:37:309 -> 2710.00
16:32:37:309 -> 2712.00
16:32:37:309 -> 2737.00
16:32:37:309 -> 2855.00
16:32:37:312 -> 2894.00
16:32:37:312 -> 2802.00
16:32:37:312 -> 2667.00
16:32:37:315 -> 2707.00
16:32:37:315 -> 2913.00
16:32:37:325 -> 2810.00
16:32:37:325 -> 2698.00
16:32:37:325 -> 2850.00
16:32:37:325 -> 2611.00
16:32:37:325 -> 2584.00
16:32:37:325 -> 2757.00
16:32:37:325 -> 2745.00
16:32:37:325 -> 2853.00
16:32:37:331 -> 2896.00
16:32:37:331 -> 2887.00
16:32:37:331 -> 2734.00
16:32:37:331 -> 2706.00
16:32:37:331 -> 2859.00
16:32:37:331 -> 2842.00
16:32:37:340 -> 2872.00
16:32:37:340 -> 2900.00
16:32:37:340 -> 2843.00
16:32:37:340 -> 2782.00
16:32:37:340 -> 2764.00
16:32:37:340 -> 2720.00
16:32:37:340 -> 2672.00
16:32:37:345 -> 2846.00
16:32:37:345 -> 3018.00
16:32:37:345 -> 2982.00
16:32:37:345 -> 2890.00
16:32:37:364 -> 2840.00
16:32:37:364 -> 2831.00
16:32:37:364 -> 2786.00
16:32:37:364 -> 2780.00
16:32:37:364 -> 2961.00
16:32:37:364 -> 2876.00
16:32:37:364 -> 2744.00
16:32:37:364 -> 2771.00
16:32:37:364 -> 2840.00
16:32:37:364 -> 2811.00
16:32:37:364 -> 2839.00
16:32:37:364 -> 2823.00
16:32:37:364 -> 2715.00
16:32:37:364 -> 2767.00
16:32:37:364 -> 2922.00
16:32:37:364 -> 2901.00
16:32:37:364 -> 2730.00
16:32:37:366 -> 2797.00
16:32:37:367 -> 2962.00
16:32:37:368 -> 2899.00
16:32:37:369 -> 2758.00
16:32:37:370 -> 2861.00
16:32:37:371 -> 2752.00
16:32:37:373 -> 2741.00
16:32:37:374 -> 2828.00
16:32:37:375 -> 2783.00
16:32:37:376 -> 2876.00
16:32:37:378 -> 2856.00
16:32:37:378 -> 2848.00
16:32:37:380 -> 2766.00
16:32:37:381 -> 2720.00
16:32:37:382 -> 2806.00
16:32:37:383 -> 2708.00
16:32:37:384 -> 2798.00
16:32:37:386 -> 2879.00
16:32:37:387 -> 2835.00
16:32:37:388 -> 2877.00
16:32:37:389 -> 2882.00
16:32:37:390 -> 2928.00
16:32:37:392 -> 2881.00
16:32:37:393 -> 2788.00
16:32:37:394 -> 2890.00
16:32:37:395 -> 2779.00
16:32:37:396 -> 2648.00
16:32:37:397 -> 2711.00
16:32:37:399 -> 2892.00
16:32:37:400 -> 2901.00
16:32:37:401 -> 2890.00
16:32:37:402 -> 2658.00
16:32:37:403 -> 2712.00
16:32:37:405 -> 2798.00
16:32:37:406 -> 2800.00
16:32:37:407 -> 2828.00
16:32:37:408 -> 2849.00
16:32:37:409 -> 2940.00
16:32:37:411 -> 2896.00
16:32:37:412 -> 2839.00
16:32:37:413 -> 2899.00
16:32:37:414 -> 2916.00
16:32:37:415 -> 2772.00
16:32:37:417 -> 2757.00
16:32:37:418 -> 2727.00
16:32:37:419 -> 2717.00
16:32:37:420 -> 2730.00
16:32:37:421 -> 2825.00
16:32:37:422 -> 2881.00
16:32:37:424 -> 2933.00
16:32:37:425 -> 2866.00
16:32:37:426 -> 2864.00
16:32:37:427 -> 2844.00
16:32:37:428 -> 2855.00
16:32:37:430 -> 2765.00
16:32:37:431 -> 2740.00
16:32:37:432 -> 2826.00
16:32:37:433 -> 2848.00
16:32:37:434 -> 2754.00
16:32:37:436 -> 2756.00
16:32:37:438 -> 2899.00
16:32:37:438 -> 2765.00
16:32:37:439 -> 2839.00
16:32:37:456 -> 2927.00
16:32:37:456 -> 2983.00
16:32:37:456 -> 2699.00
16:32:37:456 -> 2601.00
16:32:37:456 -> 2807.00
16:32:37:456 -> 2884.00
16:32:37:456 -> 2953.00
16:32:37:456 -> 2853.00
16:32:37:456 -> 2805.00
16:32:37:456 -> 2867.00
16:32:37:456 -> 2949.00
16:32:37:456 -> 2955.00
16:32:37:456 -> 2937.00
16:32:37:456 -> 2818.00
16:32:37:488 -> 2765.00
16:32:37:488 -> 2754.00
16:32:37:488 -> 2915.00
16:32:37:488 -> 2831.00
16:32:37:488 -> 2678.00
16:32:37:488 -> 2737.00
16:32:37:488 -> 2708.00
16:32:37:488 -> 2736.00
16:32:37:488 -> 2653.00
16:32:37:488 -> 2828.00
16:32:37:488 -> 2971.00
16:32:37:488 -> 2935.00
16:32:37:488 -> 2916.00
16:32:37:488 -> 2819.00
16:32:37:488 -> 2767.00
16:32:37:488 -> 2853.00
16:32:37:488 -> 2933.00
16:32:37:488 -> 3040.00
16:32:37:488 -> 2996.00
16:32:37:488 -> 2765.00
16:32:37:488 -> 2671.00
16:32:37:488 -> 2716.00
16:32:37:488 -> 2787.00
16:32:37:488 -> 2742.00
16:32:37:488 -> 2635.00
16:32:37:488 -> 2694.00
16:32:37:488 -> 2846.00
16:32:37:491 -> 2855.00
16:32:37:491 -> 2947.00
16:32:37:492 -> 2936.00
16:32:37:493 -> 2855.00
16:32:37:495 -> 2845.00
16:32:37:496 -> 2843.00
16:32:37:496 -> 3007.00
16:32:37:497 -> 2955.00
16:32:37:499 -> 2766.00
16:32:37:500 -> 2717.00
16:32:37:501 -> 2786.00
16:32:37:502 -> 2816.00
16:32:37:503 -> 2822.00
16:32:37:505 -> 2810.00
16:32:37:506 -> 2787.00
16:32:37:507 -> 2723.00
16:32:37:508 -> 2862.00
16:32:37:509 -> 2869.00
16:32:37:511 -> 2784.00
16:32:37:512 -> 2823.00
16:32:37:513 -> 2820.00
16:32:37:514 -> 2866.00
16:32:37:515 -> 2901.00
16:32:37:521 -> 2838.00
16:32:37:521 -> 2872.00
16:32:37:521 -> 2919.00
16:32:37:521 -> 2740.00
16:32:37:523 -> 2650.00
16:32:37:523 -> 2838.00
16:32:37:543 -> 2894.00
16:32:37:543 -> 3008.00
16:32:37:543 -> 3081.00
16:32:37:543 -> 2982.00
16:32:37:543 -> 2998.00
16:32:37:543 -> 2894.00
16:32:37:551 -> 2718.00
16:32:37:551 -> 2569.00
16:32:37:551 -> 2713.00
16:32:37:551 -> 2808.00
16:32:37:551 -> 2928.00
16:32:37:551 -> 2963.00
16:32:37:551 -> 2760.00
16:32:37:551 -> 2706.00
16:32:37:551 -> 2816.00
16:32:37:551 -> 2969.00
16:32:37:551 -> 3029.00
16:32:37:551 -> 2831.00
16:32:37:551 -> 2711.00
16:32:37:551 -> 2754.00
16:32:37:551 -> 2728.00
16:32:37:551 -> 2732.00
16:32:37:551 -> 2791.00
16:32:37:563 -> 2772.00
16:32:37:563 -> 2912.00
16:32:37:563 -> 2908.00
16:32:37:563 -> 2787.00
16:32:37:563 -> 2931.00
16:32:37:563 -> 2909.00
16:32:37:563 -> 2842.00
16:32:37:563 -> 2760.00
16:32:37:563 -> 2768.00
16:32:37:563 -> 2902.00
16:32:37:581 -> 2988.00
16:32:37:581 -> 2882.00
16:32:37:581 -> 2796.00
16:32:37:581 -> 2811.00
16:32:37:581 -> 2885.00
16:32:37:581 -> 2942.00
16:32:37:581 -> 2971.00
16:32:37:581 -> 2919.00
16:32:37:581 -> 2706.00
16:32:37:581 -> 2788.00
16:32:37:581 -> 2778.00
16:32:37:581 -> 2795.00
16:32:37:581 -> 2788.00
16:32:37:581 -> 2783.00
16:32:37:581 -> 2872.00
16:32:37:581 -> 2941.00
16:32:37:592 -> 2864.00
16:32:37:592 -> 2867.00
16:32:37:592 -> 2809.00
16:32:37:592 -> 2678.00
16:32:37:592 -> 2783.00
16:32:37:592 -> 2916.00
16:32:37:592 -> 3004.00
16:32:37:592 -> 2875.00
16:32:37:592 -> 2970.00
16:32:37:599 -> 2987.00
16:32:37:599 -> 2965.00
16:32:37:599 -> 2677.00
16:32:37:599 -> 2651.00
16:32:37:599 -> 2697.00
16:32:37:599 -> 2766.00
16:32:37:601 -> 2817.00
16:32:37:601 -> 2741.00
16:32:37:603 -> 2786.00
16:32:37:603 -> 2904.00
16:32:37:605 -> 2902.00
16:32:37:606 -> 2972.00
16:32:37:607 -> 2928.00
16:32:37:608 -> 2900.00
16:32:37:609 -> 2805.00
16:32:37:611 -> 3041.00
16:32:37:612 -> 2942.00
16:32:37:613 -> 2859.00
16:32:37:614 -> 2920.00
16:32:37:615 -> 2837.00
16:32:37:616 -> 2881.00
16:32:37:618 -> 2869.00
16:32:37:619 -> 2971.00
16:32:37:620 -> 2805.00
16:32:37:621 -> 2679.00
16:32:37:622 -> 2870.00
16:32:37:624 -> 2943.00
16:32:37:625 -> 2857.00
16:32:37:626 -> 2756.00
16:32:37:629 -> 2781.00
16:32:37:629 -> 2817.00
16:32:37:631 -> 2862.00
16:32:37:631 -> 2909.00
16:32:37:633 -> 2911.00
16:32:37:633 -> 2894.00
16:32:37:634 -> 2913.00
16:32:37:636 -> 2862.00
16:32:37:637 -> 2907.00
16:32:37:638 -> 2902.00
16:32:37:639 -> 2762.00
16:32:37:640 -> 2608.00
16:32:37:641 -> 2752.00
16:32:37:643 -> 2895.00
16:32:37:644 -> 2867.00
16:32:37:645 -> 2879.00
16:32:37:646 -> 2868.00
16:32:37:647 -> 2905.00
16:32:37:651 -> 2855.00
16:32:37:653 -> 2827.00
16:32:37:653 -> 2857.00
16:32:37:653 -> 2738.00
16:32:37:654 -> 2777.00
16:32:37:666 -> 2908.00
16:32:37:666 -> 3020.00
16:32:37:682 -> 2935.00
16:32:37:682 -> 2812.00
16:32:37:682 -> 2769.00
16:32:37:682 -> 2870.00
16:32:37:682 -> 2844.00
16:32:37:682 -> 2844.00
16:32:37:682 -> 2881.00
16:32:37:682 -> 2779.00
16:32:37:682 -> 2869.00
16:32:37:682 -> 3028.00
16:32:37:685 -> 3018.00
16:32:37:685 -> 3007.00
16:32:37:685 -> 2746.00
16:32:37:685 -> 2643.00
16:32:37:685 -> 2913.00
16:32:37:685 -> 2911.00
16:32:37:685 -> 2877.00
16:32:37:685 -> 2766.00
16:32:37:685 -> 2792.00
16:32:37:685 -> 2934.00
16:32:37:685 -> 2935.00
16:32:37:685 -> 3021.00
16:32:37:685 -> 2731.00
16:32:37:685 -> 2914.00
16:32:37:686 -> 2766.00
16:32:37:687 -> 2870.00
16:32:37:688 -> 2869.00
16:32:37:689 -> 2851.00
16:32:37:690 -> 2793.00
16:32:37:692 -> 2888.00
16:32:37:694 -> 2943.00
16:32:37:694 -> 2926.00
16:32:37:695 -> 2883.00
16:32:37:696 -> 2845.00
16:32:37:697 -> 2839.00
16:32:37:699 -> 2925.00
16:32:37:700 -> 2907.00
16:32:37:701 -> 2771.00
16:32:37:702 -> 2770.00
16:32:37:703 -> 2899.00
16:32:37:705 -> 2824.00
16:32:37:706 -> 2743.00
16:32:37:707 -> 2813.00
16:32:37:708 -> 2875.00
16:32:37:710 -> 2887.00
16:32:37:711 -> 2831.00
16:32:37:712 -> 2760.00
16:32:37:713 -> 2762.00
16:32:37:714 -> 2917.00
16:32:37:715 -> 2925.00
16:32:37:716 -> 3107.00
16:32:37:718 -> 2897.00
16:32:37:719 -> 2891.00
16:32:37:720 -> 2809.00
16:32:37:721 -> 2840.00
16:32:37:722 -> 2842.00
16:32:37:724 -> 2927.00
16:32:37:725 -> 2745.00
16:32:37:726 -> 2760.00
16:32:37:779 -> 2817.00
16:32:37:806 -> 2910.00
16:32:37:806 -> 2850.00
16:32:37:806 -> 2862.00
16:32:37:806 -> 2952.00
16:32:37:806 -> 2936.00
16:32:37:806 -> 2888.00
16:32:37:806 -> 2844.00
16:32:37:806 -> 2748.00
16:32:37:806 -> 2831.00
16:32:37:806 -> 2794.00
16:32:37:806 -> 2850.00
16:32:37:806 -> 3005.00
16:32:37:806 -> 3001.00
16:32:37:806 -> 2902.00
16:32:37:806 -> 2914.00
16:32:37:806 -> 2859.00
16:32:37:806 -> 2859.00
16:32:37:806 -> 2873.00
16:32:37:806 -> 2899.00
16:32:37:806 -> 2896.00
16:32:37:806 -> 2891.00
16:32:37:806 -> 2886.00
16:32:37:806 -> 2836.00
16:32:37:806 -> 2836.00
16:32:37:806 -> 2747.00
16:32:37:806 -> 2791.00
16:32:37:806 -> 2824.00
16:32:37:806 -> 2984.00
16:32:37:806 -> 2938.00
16:32:37:806 -> 2733.00
16:32:37:806 -> 2790.00
16:32:37:806 -> 2849.00
16:32:37:806 -> 2893.00
16:32:37:806 -> 2893.00
16:32:37:806 -> 2877.00
16:32:37:806 -> 2847.00
16:32:37:806 -> 2882.00
16:32:37:806 -> 2940.00
16:32:37:806 -> 2841.00
16:32:37:806 -> 2861.00
16:32:37:806 -> 2867.00
16:32:37:806 -> 2935.00
16:32:37:806 -> 3047.00
16:32:37:806 -> 2978.00
16:32:37:806 -> 2957.00
16:32:37:806 -> 2925.00
16:32:37:806 -> 2715.00
16:32:37:806 -> 2733.00
16:32:37:806 -> 2852.00
16:32:37:806 -> 2874.00
16:32:37:806 -> 2787.00
16:32:37:806 -> 2778.00
16:32:37:806 -> 2995.00
16:32:37:806 -> 2817.00
16:32:37:806 -> 2782.00
16:32:37:806 -> 2969.00
16:32:37:806 -> 2878.00
16:32:37:806 -> 2927.00
16:32:37:806 -> 3017.00
16:32:37:806 -> 3112.00
16:32:37:806 -> 2883.00
16:32:37:806 -> 2875.00
16:32:37:806 -> 2742.00
16:32:37:806 -> 2748.00
16:32:37:806 -> 2800.00
16:32:37:852 -> 2807.00
16:32:37:852 -> 2858.00
16:32:37:852 -> 2868.00
16:32:37:852 -> 2894.00
16:32:37:852 -> 2869.00
16:32:37:852 -> 2783.00
16:32:37:852 -> 2783.00
16:32:37:852 -> 2889.00
16:32:37:852 -> 2989.00
16:32:37:852 -> 2881.00
16:32:37:852 -> 2767.00
16:32:37:852 -> 2812.00
16:32:37:852 -> 2813.00
16:32:37:852 -> 2868.00
16:32:37:852 -> 2924.00
16:32:37:852 -> 2849.00
16:32:37:852 -> 2732.00
16:32:37:852 -> 2749.00
16:32:37:852 -> 2747.00
16:32:37:852 -> 2765.00
16:32:37:852 -> 2920.00
16:32:37:852 -> 3082.00
16:32:37:852 -> 3054.00
16:32:37:852 -> 2904.00
16:32:37:852 -> 2774.00
16:32:37:852 -> 2762.00
16:32:37:852 -> 2794.00
16:32:37:852 -> 2906.00
16:32:37:852 -> 2907.00
16:32:37:852 -> 2929.00
16:32:37:852 -> 2874.00
16:32:37:852 -> 2866.00
16:32:37:852 -> 2869.00
16:32:37:852 -> 2919.00
16:32:37:852 -> 2921.00
16:32:37:852 -> 2936.00
16:32:37:852 -> 2840.00
16:32:37:852 -> 2793.00
16:32:37:876 -> 2861.00
16:32:37:876 -> 2841.00
16:32:37:876 -> 2790.00
16:32:37:876 -> 2922.00
16:32:37:876 -> 2931.00
16:32:37:876 -> 2962.00
16:32:37:876 -> 2899.00
16:32:37:876 -> 2805.00
16:32:37:876 -> 2807.00
16:32:37:876 -> 2792.00
16:32:37:876 -> 2738.00
16:32:37:876 -> 2965.00
16:32:37:876 -> 3238.00
16:32:37:876 -> 3285.00
16:32:37:876 -> 2934.00
16:32:37:876 -> 2673.00
16:32:37:876 -> 2811.00
16:32:37:876 -> 2868.00
16:32:37:876 -> 2772.00
16:32:37:876 -> 2796.00
16:32:37:876 -> 2903.00
16:32:37:876 -> 2844.00
16:32:37:901 -> 2839.00
16:32:37:901 -> 2804.00
16:32:37:901 -> 2796.00
16:32:37:901 -> 2901.00
16:32:37:901 -> 2876.00
16:32:37:901 -> 2896.00
16:32:37:901 -> 2948.00
16:32:37:901 -> 2937.00
16:32:37:901 -> 2907.00
16:32:37:901 -> 2934.00
16:32:37:901 -> 2860.00
16:32:37:901 -> 2820.00
16:32:37:901 -> 2831.00
16:32:37:901 -> 2817.00
16:32:37:901 -> 2757.00
16:32:37:901 -> 2723.00
16:32:37:901 -> 2733.00
16:32:37:901 -> 2897.00
16:32:37:901 -> 2879.00
16:32:37:901 -> 2925.00
16:32:37:901 -> 2827.00
16:32:37:923 -> 2808.00
16:32:37:923 -> 2857.00
16:32:37:923 -> 2929.00
16:32:37:923 -> 2905.00
16:32:37:923 -> 2913.00
16:32:37:923 -> 2887.00
16:32:37:923 -> 2927.00
16:32:37:923 -> 2895.00
16:32:37:923 -> 2871.00
16:32:37:923 -> 2925.00
16:32:37:923 -> 2945.00
16:32:37:923 -> 2914.00
16:32:37:923 -> 2850.00
16:32:37:923 -> 2861.00
16:32:37:923 -> 2975.00
16:32:37:923 -> 2834.00
16:32:37:925 -> 2703.00
16:32:37:925 -> 2830.00
16:32:37:925 -> 2903.00
16:32:37:925 -> 2837.00
16:32:37:927 -> 2897.00
16:32:37:928 -> 3052.00
16:32:37:930 -> 3020.00
16:32:37:930 -> 2921.00
16:32:37:931 -> 2700.00
16:32:37:932 -> 2605.00
16:32:37:933 -> 2790.00
16:32:37:934 -> 2931.00
16:32:37:936 -> 2962.00
16:32:37:937 -> 2965.00
16:32:37:938 -> 2883.00
16:32:37:939 -> 2867.00
16:32:37:940 -> 2883.00
16:32:37:941 -> 2942.00
16:32:37:943 -> 2992.00
16:32:37:946 -> 2979.00
16:32:37:946 -> 2797.00
16:32:37:950 -> 2891.00
16:32:37:950 -> 2891.00
16:32:37:950 -> 2842.00
16:32:37:950 -> 2850.00
16:32:37:951 -> 2950.00
16:32:37:952 -> 2981.00
16:32:37:953 -> 2823.00
16:32:37:955 -> 2754.00
16:32:37:956 -> 2862.00
16:32:37:957 -> 2868.00
16:32:37:958 -> 2849.00
16:32:37:965 -> 2871.00
16:32:37:981 -> 2899.00
16:32:37:981 -> 2977.00
16:32:37:981 -> 3019.00
16:32:37:981 -> 3008.00
16:32:37:981 -> 2859.00
16:32:37:981 -> 2781.00
16:32:37:981 -> 2851.00
16:32:37:981 -> 2891.00
16:32:37:981 -> 2848.00
16:32:37:981 -> 2867.00
16:32:37:981 -> 2900.00
16:32:37:981 -> 2833.00
16:32:37:981 -> 2856.00
16:32:37:981 -> 2949.00
16:32:37:981 -> 2895.00
16:32:38:003 -> 2952.00
16:32:38:003 -> 2940.00
16:32:38:003 -> 2901.00
16:32:38:003 -> 2964.00
16:32:38:003 -> 2784.00
16:32:38:003 -> 2866.00
16:32:38:003 -> 2819.00
16:32:38:003 -> 2826.00
16:32:38:003 -> 2804.00
16:32:38:003 -> 2834.00
16:32:38:003 -> 2870.00
16:32:38:003 -> 2963.00
16:32:38:003 -> 2880.00
16:32:38:003 -> 2980.00
16:32:38:003 -> 2991.00
16:32:38:003 -> 2854.00
16:32:38:003 -> 2729.00
16:32:38:003 -> 2719.00
16:32:38:003 -> 2848.00
16:32:38:003 -> 2858.00
16:32:38:003 -> 2932.00
16:32:38:005 -> 2980.00
16:32:38:005 -> 2951.00
16:32:38:006 -> 2900.00
16:32:38:007 -> 2891.00
16:32:38:008 -> 2883.00
16:32:38:009 -> 2884.00
16:32:38:011 -> 2951.00
16:32:38:012 -> 3010.00
16:32:38:013 -> 3041.00
16:32:38:014 -> 2972.00
16:32:38:015 -> 2826.00
16:32:38:016 -> 2824.00
16:32:38:018 -> 2805.00
16:32:38:019 -> 2809.00
16:32:38:020 -> 2775.00
16:32:38:021 -> 2813.00
16:32:38:022 -> 2849.00
16:32:38:024 -> 2867.00
16:32:38:025 -> 2922.00
16:32:38:030 -> 2991.00
16:32:38:030 -> 2916.00
16:32:38:030 -> 2962.00
16:32:38:037 -> 2877.00
16:32:38:037 -> 2847.00
16:32:38:037 -> 2825.00
16:32:38:037 -> 2884.00
16:32:38:037 -> 2910.00
16:32:38:037 -> 2860.00
16:32:38:037 -> 2887.00
16:32:38:039 -> 2863.00
16:32:38:040 -> 2915.00
16:32:38:040 -> 2885.00
16:32:38:043 -> 2849.00
16:32:38:043 -> 2708.00
16:32:38:044 -> 2701.00
16:32:38:045 -> 2973.00
16:32:38:047 -> 3161.00
16:32:38:049 -> 3112.00
16:32:38:054 -> 3046.00
16:32:38:054 -> 2877.00
16:32:38:054 -> 2822.00
16:32:38:054 -> 2849.00
16:32:38:054 -> 2851.00
16:32:38:062 -> 2896.00
16:32:38:062 -> 2948.00
16:32:38:062 -> 2843.00
16:32:38:062 -> 2794.00
16:32:38:062 -> 2805.00
16:32:38:062 -> 2899.00
16:32:38:062 -> 2964.00
16:32:38:066 -> 3033.00
16:32:38:066 -> 2952.00
16:32:38:066 -> 3017.00
16:32:38:067 -> 2903.00
16:32:38:069 -> 2761.00
16:32:38:069 -> 2793.00
16:32:38:070 -> 2792.00
16:32:38:072 -> 2794.00
16:32:38:072 -> 2832.00
16:32:38:074 -> 2952.00
16:32:38:075 -> 2919.00
16:32:38:076 -> 2900.00
16:32:38:077 -> 2894.00
16:32:38:078 -> 2886.00
16:32:38:080 -> 2875.00
16:32:38:081 -> 2760.00
16:32:38:082 -> 2859.00
16:32:38:083 -> 2951.00
16:32:38:084 -> 2945.00
16:32:38:085 -> 2936.00
16:32:38:087 -> 2924.00
16:32:38:088 -> 2965.00
16:32:38:089 -> 2944.00
16:32:38:090 -> 3008.00
16:32:38:091 -> 3041.00
16:32:38:093 -> 3018.00
16:32:38:094 -> 2874.00
16:32:38:095 -> 2905.00
16:32:38:096 -> 2951.00
16:32:38:097 -> 2861.00
16:32:38:099 -> 2910.00
16:32:38:100 -> 2789.00
16:32:38:101 -> 2813.00
16:32:38:102 -> 2881.00
16:32:38:103 -> 2916.00
16:32:38:104 -> 2930.00
16:32:38:106 -> 2930.00
16:32:38:107 -> 2856.00
16:32:38:108 -> 2797.00
16:32:38:109 -> 2834.00
16:32:38:110 -> 2956.00
16:32:38:112 -> 3001.00
16:32:38:113 -> 2938.00
16:32:38:114 -> 2916.00
16:32:38:115 -> 2898.00
16:32:38:116 -> 2886.00
16:32:38:118 -> 2894.00
16:32:38:119 -> 2880.00
16:32:38:120 -> 2881.00
16:32:38:140 -> 2896.00
16:32:38:140 -> 2930.00
16:32:38:140 -> 2979.00
16:32:38:140 -> 2990.00
16:32:38:140 -> 2955.00
16:32:38:140 -> 2774.00
16:32:38:140 -> 2865.00
16:32:38:144 -> 2927.00
16:32:38:144 -> 2884.00
16:32:38:144 -> 2876.00
16:32:38:144 -> 2835.00
16:32:38:144 -> 2859.00
16:32:38:144 -> 2920.00
16:32:38:144 -> 2973.00
16:32:38:144 -> 2879.00
16:32:38:144 -> 2880.00
16:32:38:144 -> 2897.00
16:32:38:144 -> 2850.00
16:32:38:144 -> 2828.00
16:32:38:146 -> 2844.00
16:32:38:146 -> 2943.00
16:32:38:147 -> 2938.00
16:32:38:147 -> 2892.00
16:32:38:151 -> 2938.00
16:32:38:152 -> 2858.00
16:32:38:152 -> 2739.00
16:32:38:152 -> 2930.00
16:32:38:153 -> 2969.00
16:32:38:154 -> 3004.00
16:32:38:156 -> 3005.00
16:32:38:157 -> 2906.00
16:32:38:158 -> 2903.00
16:32:38:159 -> 2934.00
16:32:38:160 -> 2872.00
16:32:38:162 -> 2866.00
16:32:38:163 -> 2890.00
16:32:38:164 -> 2964.00
16:32:38:165 -> 2969.00
16:32:38:166 -> 2855.00
16:32:38:168 -> 2887.00
16:32:38:169 -> 2813.00
16:32:38:170 -> 2856.00
16:32:38:171 -> 2919.00
16:32:38:172 -> 3010.00
16:32:38:173 -> 3066.00
16:32:38:175 -> 3019.00
16:32:38:176 -> 2882.00
16:32:38:177 -> 2665.00
16:32:38:178 -> 2796.00
16:32:38:179 -> 2866.00
16:32:38:181 -> 2902.00
16:32:38:182 -> 2893.00
16:32:38:196 -> 2915.00
16:32:38:196 -> 2881.00
16:32:38:196 -> 2887.00
16:32:38:196 -> 2928.00
16:32:38:196 -> 2926.00
16:32:38:196 -> 2937.00
16:32:38:196 -> 2927.00
16:32:38:196 -> 2941.00
16:32:38:196 -> 2931.00
16:32:38:196 -> 2935.00
16:32:38:196 -> 2900.00
16:32:38:202 -> 2878.00
16:32:38:202 -> 2864.00
16:32:38:202 -> 2830.00
16:32:38:202 -> 2843.00
16:32:38:202 -> 2901.00
16:32:38:202 -> 2882.00
16:32:38:213 -> 2867.00
16:32:38:213 -> 2858.00
16:32:38:213 -> 2841.00
16:32:38:213 -> 3107.00
16:32:38:213 -> 3079.00
16:32:38:213 -> 3016.00
16:32:38:213 -> 2989.00
16:32:38:213 -> 2814.00
16:32:38:217 -> 2839.00
16:32:38:217 -> 2925.00
16:32:38:217 -> 2895.00
16:32:38:217 -> 2921.00
16:32:38:240 -> 2878.00
16:32:38:240 -> 2893.00
16:32:38:240 -> 2967.00
16:32:38:240 -> 2928.00
16:32:38:240 -> 2952.00
16:32:38:240 -> 2834.00
16:32:38:240 -> 2836.00
16:32:38:240 -> 2876.00
16:32:38:240 -> 2957.00
16:32:38:240 -> 2971.00
16:32:38:240 -> 2979.00
16:32:38:240 -> 3013.00
16:32:38:240 -> 3036.00
16:32:38:240 -> 2912.00
16:32:38:240 -> 2808.00
16:32:38:244 -> 2765.00
16:32:38:244 -> 2890.00
16:32:38:244 -> 2859.00
16:32:38:244 -> 2865.00
16:32:38:244 -> 2845.00
16:32:38:244 -> 2837.00
16:32:38:244 -> 2893.00
16:32:38:245 -> 2908.00
16:32:38:245 -> 2891.00
16:32:38:248 -> 2935.00
16:32:38:248 -> 2970.00
16:32:38:254 -> 2945.00
16:32:38:254 -> 2972.00
16:32:38:254 -> 2930.00
16:32:38:254 -> 2858.00
16:32:38:254 -> 2833.00
16:32:38:255 -> 2916.00
16:32:38:258 -> 2865.00
16:32:38:258 -> 2875.00
16:32:38:259 -> 2946.00
16:32:38:259 -> 2928.00
16:32:38:263 -> 2869.00
16:32:38:263 -> 2802.00
16:32:38:263 -> 2928.00
16:32:38:269 -> 2954.00
16:32:38:269 -> 3062.00
16:32:38:269 -> 3092.00
16:32:38:269 -> 3086.00
16:32:38:269 -> 2991.00
16:32:38:271 -> 2811.00
16:32:38:273 -> 2885.00
16:32:38:273 -> 2861.00
16:32:38:275 -> 2824.00
16:32:38:275 -> 2795.00
16:32:38:277 -> 2901.00
16:32:38:278 -> 3100.00
16:32:38:278 -> 3167.00
16:32:38:309 -> 2918.00
16:32:38:314 -> 2712.00
16:32:38:314 -> 2848.00
16:32:38:314 -> 2925.00
16:32:38:314 -> 2881.00
16:32:38:314 -> 2974.00
16:32:38:314 -> 2942.00
16:32:38:314 -> 2829.00
16:32:38:314 -> 2908.00
16:32:38:314 -> 2960.00
16:32:38:314 -> 2945.00
16:32:38:314 -> 2951.00
16:32:38:314 -> 2919.00
16:32:38:314 -> 2935.00
16:32:38:314 -> 2901.00
16:32:38:314 -> 2932.00
16:32:38:314 -> 2969.00
16:32:38:314 -> 2923.00
16:32:38:314 -> 3001.00
16:32:38:314 -> 2943.00
16:32:38:314 -> 2784.00
16:32:38:314 -> 2804.00
16:32:38:314 -> 2790.00
16:32:38:314 -> 2848.00
16:32:38:314 -> 2980.00
16:32:38:314 -> 2944.00
16:32:38:314 -> 2959.00
16:32:38:314 -> 2967.00
16:32:38:314 -> 2914.00
16:32:38:316 -> 2873.00
16:32:38:316 -> 2879.00
16:32:38:321 -> 2871.00
16:32:38:321 -> 2859.00
16:32:38:321 -> 2869.00
16:32:38:321 -> 2864.00
16:32:38:321 -> 2876.00
16:32:38:326 -> 2871.00
16:32:38:326 -> 2907.00
16:32:38:326 -> 2891.00
16:32:38:326 -> 2916.00
16:32:38:374 -> 2928.00
16:32:38:374 -> 2905.00
16:32:38:374 -> 2931.00
16:32:38:374 -> 2927.00
16:32:38:374 -> 2963.00
16:32:38:374 -> 2974.00
16:32:38:374 -> 2932.00
16:32:38:374 -> 2791.00
16:32:38:374 -> 2861.00
16:32:38:374 -> 2966.00
16:32:38:374 -> 2958.00
16:32:38:374 -> 2934.00
16:32:38:374 -> 2896.00
16:32:38:374 -> 2871.00
16:32:38:374 -> 2941.00
16:32:38:374 -> 2955.00
16:32:38:374 -> 2940.00
16:32:38:374 -> 2970.00
16:32:38:374 -> 2855.00
16:32:38:374 -> 2871.00
16:32:38:374 -> 3000.00
16:32:38:374 -> 3079.00
16:32:38:374 -> 3044.00
16:32:38:374 -> 2946.00
16:32:38:374 -> 2843.00
16:32:38:374 -> 2808.00
16:32:38:374 -> 2880.00
16:32:38:374 -> 2915.00
16:32:38:374 -> 2867.00
16:32:38:374 -> 2939.00
16:32:38:374 -> 3071.00
16:32:38:374 -> 3036.00
16:32:38:374 -> 2994.00
16:32:38:374 -> 2835.00
16:32:38:374 -> 2823.00
16:32:38:374 -> 2901.00
16:32:38:374 -> 2925.00
16:32:38:407 -> 2933.00
16:32:38:407 -> 2914.00
16:32:38:407 -> 2869.00
16:32:38:407 -> 2848.00
16:32:38:407 -> 2868.00
16:32:38:407 -> 2821.00
16:32:38:407 -> 2914.00
16:32:38:407 -> 2918.00
16:32:38:407 -> 2934.00
16:32:38:407 -> 2951.00
16:32:38:407 -> 2880.00
16:32:38:407 -> 2906.00
16:32:38:407 -> 2926.00
16:32:38:407 -> 2905.00
16:32:38:407 -> 2930.00
16:32:38:407 -> 2963.00
16:32:38:407 -> 2949.00
16:32:38:407 -> 2903.00
16:32:38:407 -> 2913.00
16:32:38:407 -> 2807.00
16:32:38:407 -> 2923.00
16:32:38:407 -> 2863.00
16:32:38:407 -> 2787.00
16:32:38:407 -> 2819.00
16:32:38:407 -> 2892.00
16:32:38:407 -> 2998.00
16:32:38:407 -> 2995.00
16:32:38:407 -> 2974.00
16:32:38:407 -> 3032.00
16:32:38:407 -> 2862.00
16:32:38:407 -> 2822.00
16:32:38:414 -> 2943.00
16:32:38:414 -> 2981.00
16:32:38:414 -> 2971.00
16:32:38:414 -> 2972.00
16:32:38:414 -> 2900.00
16:32:38:426 -> 2902.00
16:32:38:426 -> 2945.00
16:32:38:426 -> 2943.00
16:32:38:426 -> 2936.00
16:32:38:426 -> 2905.00
16:32:38:426 -> 2917.00
16:32:38:426 -> 2942.00
16:32:38:426 -> 3007.00
16:32:38:426 -> 3013.00
16:32:38:426 -> 2901.00
16:32:38:426 -> 2908.00
16:32:38:446 -> 2915.00
16:32:38:446 -> 2927.00
16:32:38:446 -> 2958.00
16:32:38:446 -> 2944.00
16:32:38:446 -> 2950.00
16:32:38:446 -> 2989.00
16:32:38:446 -> 3022.00
16:32:38:446 -> 2901.00
16:32:38:446 -> 2885.00
16:32:38:446 -> 2807.00
16:32:38:446 -> 2919.00
16:32:38:446 -> 2927.00
16:32:38:446 -> 2914.00
16:32:38:446 -> 2930.00
16:32:38:446 -> 2938.00
16:32:38:446 -> 2915.00
16:32:38:446 -> 2885.00
16:32:38:452 -> 2836.00
16:32:38:452 -> 2902.00
16:32:38:452 -> 2912.00
16:32:38:452 -> 3024.00
16:32:38:452 -> 2941.00
16:32:38:479 -> 2963.00
16:32:38:479 -> 2939.00
16:32:38:479 -> 2942.00
16:32:38:479 -> 2951.00
16:32:38:479 -> 2907.00
16:32:38:479 -> 2887.00
16:32:38:479 -> 2919.00
16:32:38:479 -> 2918.00
16:32:38:479 -> 2869.00
16:32:38:479 -> 2908.00
16:32:38:479 -> 2946.00
16:32:38:479 -> 3008.00
16:32:38:479 -> 3071.00
16:32:38:479 -> 3032.00
16:32:38:479 -> 2949.00
16:32:38:479 -> 2897.00
16:32:38:479 -> 2842.00
16:32:38:479 -> 2796.00
16:32:38:479 -> 2834.00
16:32:38:479 -> 2820.00
16:32:38:479 -> 2839.00
16:32:38:479 -> 3021.00
16:32:38:487 -> 3083.00
16:32:38:487 -> 3033.00
16:32:38:487 -> 2962.00
16:32:38:487 -> 2953.00
16:32:38:487 -> 2918.00
16:32:38:487 -> 2937.00
16:32:38:487 -> 2952.00
16:32:38:491 -> 2942.00
16:32:38:491 -> 2944.00
16:32:38:491 -> 2927.00
16:32:38:522 -> 2903.00
16:32:38:522 -> 2907.00
16:32:38:522 -> 2910.00
16:32:38:522 -> 2925.00
16:32:38:522 -> 2928.00
16:32:38:522 -> 2889.00
16:32:38:522 -> 2942.00
16:32:38:522 -> 2966.00
16:32:38:522 -> 3016.00
16:32:38:522 -> 2998.00
16:32:38:522 -> 2862.00
16:32:38:526 -> 2847.00
16:32:38:526 -> 2849.00
16:32:38:526 -> 2942.00
16:32:38:526 -> 2990.00
16:32:38:526 -> 2948.00
16:32:38:526 -> 2995.00
16:32:38:526 -> 2946.00
16:32:38:526 -> 2864.00
16:32:38:526 -> 2847.00
16:32:38:526 -> 2794.00
16:32:38:526 -> 2969.00
16:32:38:526 -> 2980.00
16:32:38:526 -> 2928.00
16:32:38:526 -> 2919.00
16:32:38:526 -> 2882.00
16:32:38:526 -> 2887.00
16:32:38:526 -> 2999.00
16:32:38:526 -> 2960.00
16:32:38:526 -> 2961.00
16:32:38:532 -> 3000.00
16:32:38:532 -> 3020.00
16:32:38:532 -> 3045.00
16:32:38:532 -> 3001.00
16:32:38:532 -> 2887.00
16:32:38:553 -> 2874.00
16:32:38:553 -> 2869.00
16:32:38:553 -> 2803.00
16:32:38:553 -> 2807.00
16:32:38:553 -> 2828.00
16:32:38:553 -> 2902.00
16:32:38:553 -> 2843.00
16:32:38:553 -> 2891.00
16:32:38:553 -> 2973.00
16:32:38:553 -> 3004.00
16:32:38:553 -> 2953.00
16:32:38:553 -> 2928.00
16:32:38:553 -> 2963.00
16:32:38:553 -> 3001.00
16:32:38:553 -> 3027.00
16:32:38:553 -> 3082.00
16:32:38:553 -> 3041.00
16:32:38:564 -> 3056.00
16:32:38:564 -> 2937.00
16:32:38:564 -> 2863.00
16:32:38:564 -> 2852.00
16:32:38:564 -> 2827.00
16:32:38:564 -> 2896.00
16:32:38:564 -> 2936.00
16:32:38:564 -> 2935.00
16:32:38:564 -> 3008.00
16:32:38:568 -> 2866.00
16:32:38:568 -> 2754.00
16:32:38:568 -> 3019.00
16:32:38:568 -> 3058.00
16:32:38:576 -> 2942.00
16:32:38:576 -> 2941.00
16:32:38:576 -> 2927.00
16:32:38:576 -> 2996.00
16:32:38:576 -> 2999.00
16:32:38:581 -> 2970.00
16:32:38:581 -> 3006.00
16:32:38:581 -> 2992.00
16:32:38:581 -> 2926.00
16:32:38:581 -> 2895.00
16:32:38:582 -> 2824.00
16:32:38:582 -> 2990.00
16:32:38:583 -> 2961.00
16:32:38:584 -> 2922.00
16:32:38:588 -> 3007.00
16:32:38:588 -> 2907.00
16:32:38:588 -> 2897.00
16:32:38:590 -> 2975.00
16:32:38:590 -> 3070.00
16:32:38:591 -> 2923.00
16:32:38:592 -> 2940.00
16:32:38:594 -> 2948.00
16:32:38:595 -> 3016.00
16:32:38:596 -> 2926.00
16:32:38:597 -> 2796.00
16:32:38:598 -> 2824.00
16:32:38:600 -> 2890.00
16:32:38:601 -> 2926.00
16:32:38:602 -> 2900.00
16:32:38:603 -> 2926.00
16:32:38:610 -> 2935.00
16:32:38:610 -> 2980.00
16:32:38:610 -> 2971.00
16:32:38:610 -> 2956.00
16:32:38:610 -> 3028.00
16:32:38:632 -> 3078.00
16:32:38:632 -> 2994.00
16:32:38:632 -> 2897.00
16:32:38:632 -> 2818.00
16:32:38:632 -> 2801.00
16:32:38:632 -> 2896.00
16:32:38:632 -> 2979.00
16:32:38:632 -> 2943.00
16:32:38:632 -> 2971.00
16:32:38:632 -> 3020.00
16:32:38:632 -> 2959.00
16:32:38:632 -> 2859.00
16:32:38:632 -> 2874.00
16:32:38:632 -> 2963.00
16:32:38:632 -> 3026.00
16:32:38:632 -> 3111.00
16:32:38:632 -> 2994.00
16:32:38:632 -> 2864.00
16:32:38:632 -> 2801.00
16:32:38:637 -> 2948.00
16:32:38:637 -> 2918.00
16:32:38:637 -> 2876.00
16:32:38:637 -> 3003.00
16:32:38:638 -> 2978.00
16:32:38:640 -> 2944.00
16:32:38:640 -> 2966.00
16:32:38:641 -> 2871.00
16:32:38:647 -> 2752.00
16:32:38:647 -> 2865.00
16:32:38:647 -> 3011.00
16:32:38:647 -> 3019.00
16:32:38:647 -> 2960.00
16:32:38:653 -> 2922.00
16:32:38:653 -> 3020.00
16:32:38:653 -> 3055.00
16:32:38:653 -> 3010.00
16:32:38:653 -> 2974.00
16:32:38:654 -> 2963.00
16:32:38:658 -> 2921.00
16:32:38:658 -> 2992.00
16:32:38:658 -> 2876.00
16:32:38:661 -> 2914.00
16:32:38:661 -> 2962.00
16:32:38:677 -> 2941.00
16:32:38:677 -> 2924.00
16:32:38:677 -> 2926.00
16:32:38:677 -> 3002.00
16:32:38:677 -> 3071.00
16:32:38:677 -> 2976.00
16:32:38:677 -> 2934.00
16:32:38:677 -> 2938.00
16:32:38:677 -> 2998.00
16:32:38:680 -> 3132.00
16:32:38:680 -> 3007.00
16:32:38:680 -> 2909.00
16:32:38:680 -> 2857.00
16:32:38:680 -> 2900.00
16:32:38:680 -> 2903.00
16:32:38:680 -> 2895.00
16:32:38:681 -> 2812.00
16:32:38:682 -> 2968.00
16:32:38:683 -> 3066.00
16:32:38:684 -> 3042.00
16:32:38:685 -> 3011.00
16:32:38:687 -> 3008.00
16:32:38:688 -> 2904.00
16:32:38:689 -> 2947.00
16:32:38:690 -> 2989.00
16:32:38:695 -> 2978.00
16:32:38:695 -> 2896.00
16:32:38:695 -> 2903.00
16:32:38:695 -> 3041.00
16:32:38:696 -> 3004.00
16:32:38:701 -> 2952.00
16:32:38:711 -> 2923.00
16:32:38:711 -> 2855.00
16:32:38:711 -> 2869.00
16:32:38:711 -> 2845.00
16:32:38:711 -> 2909.00
16:32:38:711 -> 3025.00
16:32:38:711 -> 2959.00
16:32:38:711 -> 2958.00
16:32:38:711 -> 2956.00
16:32:38:711 -> 2963.00
16:32:38:719 -> 3052.00
16:32:38:719 -> 3086.00
16:32:38:719 -> 3112.00
16:32:38:719 -> 2940.00
16:32:38:719 -> 2827.00
16:32:38:719 -> 2895.00
16:32:38:719 -> 2881.00
16:32:38:719 -> 2876.00
16:32:38:720 -> 2872.00
16:32:38:723 -> 2882.00
16:32:38:723 -> 2922.00
16:32:38:724 -> 2993.00
16:32:38:725 -> 3060.00
16:32:38:726 -> 2899.00
16:32:38:727 -> 2958.00
16:32:38:728 -> 2980.00
16:32:38:729 -> 2970.00
16:32:38:731 -> 2964.00
16:32:38:732 -> 2984.00
16:32:38:733 -> 2994.00
16:32:38:734 -> 2977.00
16:32:38:738 -> 2920.00
16:32:38:738 -> 2861.00
16:32:38:738 -> 2884.00
16:32:38:739 -> 2929.00
16:32:38:740 -> 2914.00
16:32:38:741 -> 3007.00
16:32:38:742 -> 2913.00
16:32:38:744 -> 2910.00
16:32:38:745 -> 2890.00
16:32:38:746 -> 3009.00
16:32:38:747 -> 3078.00
16:32:38:748 -> 2998.00
16:32:38:750 -> 2939.00
16:32:38:751 -> 2919.00
16:32:38:752 -> 2909.00
16:32:38:753 -> 2829.00
16:32:38:754 -> 2828.00
16:32:38:756 -> 3066.00
16:32:38:757 -> 3150.00
16:32:38:758 -> 3027.00
16:32:38:759 -> 2988.00
16:32:38:760 -> 2949.00
16:32:38:761 -> 2972.00
16:32:38:763 -> 2992.00
16:32:38:764 -> 2977.00
16:32:38:765 -> 2982.00
16:32:38:766 -> 2988.00
16:32:38:767 -> 2930.00
16:32:38:769 -> 2879.00
16:32:38:770 -> 2968.00
16:32:38:771 -> 2943.00
16:32:38:772 -> 2949.00
16:32:38:773 -> 2987.00
16:32:38:779 -> 2965.00
16:32:38:779 -> 3068.00
16:32:38:779 -> 2963.00
16:32:38:779 -> 3038.00
16:32:38:780 -> 2918.00
16:32:38:781 -> 2849.00
16:32:38:782 -> 2905.00
16:32:38:783 -> 2921.00
16:32:38:784 -> 2958.00
16:32:38:785 -> 2930.00
16:32:38:786 -> 2894.00
16:32:38:788 -> 2947.00
16:32:38:789 -> 2992.00
16:32:38:790 -> 2992.00
16:32:38:791 -> 2977.00
16:32:38:792 -> 2981.00
16:32:38:802 -> 2962.00
16:32:38:804 -> 2930.00
16:32:38:804 -> 2923.00
16:32:38:804 -> 2919.00
16:32:38:804 -> 2895.00
16:32:38:804 -> 2921.00
16:32:38:804 -> 2960.00
16:32:38:804 -> 2927.00
16:32:38:804 -> 2947.00
16:32:38:805 -> 2977.00
16:32:38:806 -> 2980.00
16:32:38:807 -> 2973.00
16:32:38:808 -> 2986.00
16:32:38:809 -> 2995.00
16:32:38:840 -> 2974.00
16:32:38:855 -> 2898.00
16:32:38:855 -> 2922.00
16:32:38:855 -> 3022.00
16:32:38:855 -> 3009.00
16:32:38:855 -> 3024.00
16:32:38:855 -> 2962.00
16:32:38:855 -> 2977.00
16:32:38:855 -> 2895.00
16:32:38:855 -> 2864.00
16:32:38:855 -> 2989.00
16:32:38:855 -> 3034.00
16:32:38:855 -> 3066.00
16:32:38:855 -> 3013.00
16:32:38:855 -> 2903.00
16:32:38:855 -> 2909.00
16:32:38:855 -> 2965.00
16:32:38:855 -> 3007.00
16:32:38:855 -> 3035.00
16:32:38:855 -> 2994.00
16:32:38:855 -> 2979.00
16:32:38:855 -> 2967.00
16:32:38:855 -> 2957.00
16:32:38:855 -> 3019.00
16:32:38:855 -> 3034.00
16:32:38:855 -> 2962.00
16:32:38:855 -> 2805.00
16:32:38:861 -> 2816.00
16:32:38:861 -> 2982.00
16:32:38:861 -> 2997.00
16:32:38:861 -> 2900.00
16:32:38:861 -> 2976.00
16:32:38:861 -> 2948.00
16:32:38:861 -> 3039.00
16:32:38:861 -> 2987.00
16:32:38:861 -> 2971.00
16:32:38:861 -> 3064.00
16:32:38:861 -> 3048.00
16:32:38:861 -> 2942.00
16:32:38:861 -> 2926.00
16:32:38:861 -> 2835.00
16:32:38:861 -> 2916.00
16:32:38:861 -> 2922.00
16:32:38:866 -> 2936.00
16:32:38:866 -> 2987.00
16:32:38:866 -> 2905.00
16:32:38:866 -> 3019.00
16:32:38:873 -> 3079.00
16:32:38:873 -> 3079.00
16:32:38:873 -> 2992.00
16:32:38:873 -> 2894.00
16:32:38:873 -> 2930.00
16:32:38:873 -> 2963.00
16:32:38:877 -> 3016.00
16:32:38:877 -> 2927.00
16:32:38:877 -> 2912.00
16:32:38:877 -> 2882.00
16:32:38:885 -> 2870.00
16:32:38:885 -> 2857.00
16:32:38:885 -> 2943.00
16:32:38:885 -> 2972.00
16:32:38:885 -> 2965.00
16:32:38:885 -> 2952.00
16:32:38:885 -> 2962.00
16:32:38:886 -> 2995.00
16:32:38:888 -> 2987.00
16:32:38:889 -> 3063.00
16:32:38:890 -> 3055.00
16:32:38:891 -> 2878.00
16:32:38:892 -> 2949.00
16:32:38:894 -> 2937.00
16:32:38:895 -> 2926.00
16:32:38:896 -> 2967.00
16:32:38:897 -> 2998.00
16:32:38:898 -> 2950.00
16:32:38:900 -> 2971.00
16:32:38:901 -> 2977.00
16:32:38:902 -> 2987.00
16:32:38:903 -> 3003.00
16:32:38:904 -> 3038.00
16:32:38:905 -> 3029.00
16:32:38:907 -> 2943.00
16:32:38:908 -> 2839.00
16:32:38:909 -> 2937.00
16:32:38:911 -> 3079.00
16:32:38:914 -> 3047.00
16:32:38:916 -> 3038.00
16:32:38:916 -> 3042.00
16:32:38:916 -> 3001.00
16:32:38:917 -> 2951.00
16:32:38:917 -> 2894.00
16:32:38:919 -> 2914.00
16:32:38:920 -> 2940.00
16:32:38:921 -> 2956.00
16:32:38:922 -> 2911.00
16:32:38:923 -> 2913.00
16:32:38:925 -> 2833.00
16:32:38:926 -> 2784.00
16:32:38:927 -> 2912.00
16:32:38:928 -> 3113.00
16:32:38:929 -> 3102.00
16:32:38:930 -> 3065.00
16:32:38:932 -> 3015.00
16:32:38:933 -> 2989.00
16:32:38:934 -> 3037.00
16:32:38:935 -> 3076.00
16:32:38:936 -> 2982.00
16:32:38:938 -> 2907.00
16:32:38:939 -> 2895.00
16:32:38:940 -> 2887.00
16:32:38:943 -> 2934.00
16:32:38:943 -> 2963.00
16:32:38:946 -> 2935.00
16:32:38:946 -> 2897.00
16:32:38:946 -> 2963.00
16:32:38:950 -> 2952.00
16:32:38:950 -> 2995.00
16:32:38:950 -> 3037.00
16:32:38:956 -> 3044.00
16:32:38:956 -> 3049.00
16:32:38:956 -> 3004.00
16:32:38:956 -> 2965.00
16:32:38:956 -> 2929.00
16:32:38:960 -> 2862.00
16:32:38:960 -> 2949.00
16:32:38:960 -> 2954.00
16:32:38:960 -> 2929.00
16:32:38:961 -> 2950.00
16:32:38:963 -> 2941.00
16:32:38:964 -> 2972.00
16:32:38:965 -> 3027.00
16:32:38:966 -> 3041.00
16:32:38:967 -> 3022.00
16:32:38:969 -> 2980.00
16:32:38:970 -> 2953.00
16:32:38:971 -> 2924.00
16:32:38:972 -> 2931.00
16:32:38:973 -> 2877.00
16:32:38:975 -> 2917.00
16:32:38:976 -> 2997.00
16:32:38:977 -> 2919.00
16:32:38:978 -> 2941.00
16:32:38:979 -> 3006.00
16:32:38:980 -> 3065.00
16:32:38:982 -> 3031.00
16:32:38:983 -> 2937.00
16:32:38:984 -> 2911.00
16:32:38:985 -> 2958.00
16:32:38:987 -> 3038.00
16:32:38:988 -> 2964.00
16:32:38:992 -> 2985.00
16:32:38:992 -> 3062.00
16:32:38:993 -> 3022.00
16:32:38:993 -> 2908.00
16:32:38:996 -> 2917.00
16:32:38:996 -> 3018.00
16:32:38:996 -> 2953.00
16:32:38:997 -> 2906.00
16:32:38:998 -> 2920.00
16:32:39:000 -> 3000.00
16:32:39:001 -> 2964.00
16:32:39:002 -> 2990.00
16:32:39:003 -> 3015.00
16:32:39:052 -> 3009.00
16:32:39:052 -> 2972.00
16:32:39:052 -> 3018.00
16:32:39:052 -> 2969.00
16:32:39:052 -> 3008.00
16:32:39:052 -> 2921.00
16:32:39:052 -> 3012.00
16:32:39:052 -> 3099.00
16:32:39:052 -> 3058.00
16:32:39:052 -> 2946.00
16:32:39:052 -> 2885.00
16:32:39:052 -> 2910.00
16:32:39:052 -> 2984.00
16:32:39:052 -> 3031.00
16:32:39:052 -> 3044.00
16:32:39:052 -> 2978.00
16:32:39:052 -> 2990.00
16:32:39:052 -> 2972.00
16:32:39:052 -> 2906.00
16:32:39:052 -> 2885.00
16:32:39:052 -> 3010.00
16:32:39:052 -> 3050.00
16:32:39:052 -> 2988.00
16:32:39:052 -> 2992.00
16:32:39:052 -> 2982.00
16:32:39:052 -> 2980.00
16:32:39:052 -> 2999.00
16:32:39:052 -> 3045.00
16:32:39:052 -> 3019.00
16:32:39:052 -> 2942.00
16:32:39:052 -> 2893.00
16:32:39:052 -> 2894.00
16:32:39:052 -> 2960.00
16:32:39:052 -> 3013.00
16:32:39:052 -> 2957.00
16:32:39:052 -> 2990.00
16:32:39:052 -> 2959.00
16:32:39:052 -> 2985.00
16:32:39:052 -> 3008.00
16:32:39:052 -> 3021.00
16:32:39:052 -> 2967.00
16:32:39:069 -> 2979.00
16:32:39:069 -> 3033.00
16:32:39:069 -> 2928.00
16:32:39:069 -> 2876.00
16:32:39:069 -> 2991.00
16:32:39:069 -> 3024.00
16:32:39:069 -> 3085.00
16:32:39:069 -> 3026.00
16:32:39:069 -> 2909.00
16:32:39:069 -> 2821.00
16:32:39:069 -> 2991.00
16:32:39:069 -> 3018.00
16:32:39:069 -> 3017.00
16:32:39:069 -> 3063.00
16:32:39:093 -> 2950.00
16:32:39:093 -> 2831.00
16:32:39:093 -> 3095.00
16:32:39:093 -> 3024.00
16:32:39:093 -> 3042.00
16:32:39:093 -> 3022.00
16:32:39:093 -> 2958.00
16:32:39:093 -> 2959.00
16:32:39:093 -> 2975.00
16:32:39:093 -> 2974.00
16:32:39:093 -> 2983.00
16:32:39:093 -> 3032.00
16:32:39:093 -> 2979.00
16:32:39:093 -> 3010.00
16:32:39:093 -> 2953.00
16:32:39:093 -> 2972.00
16:32:39:093 -> 2981.00
16:32:39:093 -> 3008.00
16:32:39:093 -> 3006.00
16:32:39:142 -> 3030.00
16:32:39:142 -> 3023.00
16:32:39:142 -> 2957.00
16:32:39:142 -> 2907.00
16:32:39:142 -> 2991.00
16:32:39:142 -> 2992.00
16:32:39:142 -> 2984.00
16:32:39:142 -> 2972.00
16:32:39:142 -> 2982.00
16:32:39:142 -> 2919.00
16:32:39:142 -> 2944.00
16:32:39:142 -> 2972.00
16:32:39:142 -> 3024.00
16:32:39:142 -> 2978.00
16:32:39:142 -> 2993.00
16:32:39:142 -> 2959.00
16:32:39:142 -> 2917.00
16:32:39:142 -> 2981.00
16:32:39:142 -> 2955.00
16:32:39:142 -> 2886.00
16:32:39:142 -> 2971.00
16:32:39:142 -> 3023.00
16:32:39:142 -> 3003.00
16:32:39:142 -> 2947.00
16:32:39:142 -> 2987.00
16:32:39:142 -> 3012.00
16:32:39:142 -> 3002.00
16:32:39:142 -> 2997.00
16:32:39:142 -> 3132.00
16:32:39:142 -> 3006.00
16:32:39:142 -> 2864.00
16:32:39:142 -> 3029.00
16:32:39:142 -> 3053.00
16:32:39:142 -> 3031.00
16:32:39:142 -> 3021.00
16:32:39:142 -> 3034.00
16:32:39:142 -> 3011.00
16:32:39:142 -> 2990.00
16:32:39:142 -> 2953.00
16:32:39:142 -> 2956.00
16:32:39:142 -> 2977.00
16:32:39:142 -> 2971.00
16:32:39:168 -> 2932.00
16:32:39:168 -> 2943.00
16:32:39:168 -> 2969.00
16:32:39:168 -> 2968.00
16:32:39:168 -> 2971.00
16:32:39:168 -> 2997.00
16:32:39:168 -> 3031.00
16:32:39:168 -> 3009.00
16:32:39:168 -> 2994.00
16:32:39:168 -> 2998.00
16:32:39:168 -> 3011.00
16:32:39:168 -> 2948.00
16:32:39:168 -> 2956.00
16:32:39:190 -> 3004.00
16:32:39:190 -> 3009.00
16:32:39:190 -> 3037.00
16:32:39:190 -> 3027.00
16:32:39:190 -> 2948.00
16:32:39:190 -> 2958.00
16:32:39:190 -> 3028.00
16:32:39:190 -> 3033.00
16:32:39:190 -> 3017.00
16:32:39:190 -> 2976.00
16:32:39:190 -> 2999.00
16:32:39:190 -> 3008.00
16:32:39:190 -> 3000.00
16:32:39:190 -> 2963.00
16:32:39:190 -> 3017.00
16:32:39:190 -> 2963.00
16:32:39:190 -> 2873.00
16:32:39:190 -> 2946.00
16:32:39:190 -> 2950.00
16:32:39:190 -> 2935.00
16:32:39:190 -> 2957.00
16:32:39:190 -> 2935.00
16:32:39:190 -> 2984.00
16:32:39:190 -> 3030.00
16:32:39:190 -> 3034.00
16:32:39:190 -> 3045.00
16:32:39:190 -> 3008.00
16:32:39:190 -> 2970.00
16:32:39:195 -> 2987.00
16:32:39:195 -> 3021.00
16:32:39:195 -> 2979.00
16:32:39:195 -> 2982.00
16:32:39:199 -> 2979.00
16:32:39:199 -> 3019.00
16:32:39:199 -> 2997.00
16:32:39:217 -> 3024.00
16:32:39:217 -> 2934.00
16:32:39:217 -> 2881.00
16:32:39:217 -> 2963.00
16:32:39:217 -> 3079.00
16:32:39:217 -> 3085.00
16:32:39:217 -> 3014.00
16:32:39:217 -> 3036.00
16:32:39:217 -> 3049.00
16:32:39:217 -> 3069.00
16:32:39:217 -> 3049.00
16:32:39:217 -> 2990.00
16:32:39:217 -> 2978.00
16:32:39:217 -> 2963.00
16:32:39:217 -> 2960.00
16:32:39:226 -> 2943.00
16:32:39:226 -> 2899.00
16:32:39:226 -> 2949.00
16:32:39:226 -> 3001.00
16:32:39:226 -> 3018.00
16:32:39:226 -> 2977.00
16:32:39:226 -> 3057.00
16:32:39:226 -> 3025.00
16:32:39:232 -> 3040.00
16:32:39:232 -> 3028.00
16:32:39:232 -> 3045.00
16:32:39:232 -> 3038.00
16:32:39:232 -> 2993.00
16:32:39:233 -> 2963.00
16:32:39:239 -> 2997.00
16:32:39:239 -> 2910.00
16:32:39:239 -> 2955.00
16:32:39:239 -> 2964.00
16:32:39:241 -> 2947.00
16:32:39:241 -> 2986.00
16:32:39:242 -> 2971.00
16:32:39:243 -> 2985.00
16:32:39:249 -> 3003.00
16:32:39:249 -> 2986.00
16:32:39:249 -> 3024.00
16:32:39:249 -> 2979.00
16:32:39:249 -> 2980.00
16:32:39:250 -> 3041.00
16:32:39:251 -> 2975.00
16:32:39:254 -> 3057.00
16:32:39:254 -> 3066.00
16:32:39:257 -> 2993.00
16:32:39:257 -> 3010.00
16:32:39:257 -> 2982.00
16:32:39:258 -> 3012.00
16:32:39:259 -> 2962.00
16:32:39:260 -> 2957.00
16:32:39:261 -> 2948.00
16:32:39:263 -> 2887.00
16:32:39:264 -> 2977.00
16:32:39:265 -> 3063.00
16:32:39:266 -> 3075.00
16:32:39:267 -> 3040.00
16:32:39:268 -> 3043.00
16:32:39:270 -> 3070.00
16:32:39:271 -> 3034.00
16:32:39:272 -> 3001.00
16:32:39:273 -> 3037.00
16:32:39:274 -> 3038.00
16:32:39:276 -> 3002.00
16:32:39:277 -> 2958.00
16:32:39:278 -> 3007.00
16:32:39:279 -> 2987.00
16:32:39:280 -> 3013.00
16:32:39:282 -> 3031.00
16:32:39:283 -> 3000.00
16:32:39:284 -> 2935.00
16:32:39:285 -> 2931.00
16:32:39:286 -> 3031.00
16:32:39:288 -> 3073.00
16:32:39:289 -> 3066.00
16:32:39:290 -> 3061.00
16:32:39:291 -> 3045.00
16:32:39:292 -> 3018.00
16:32:39:294 -> 3021.00
16:32:39:295 -> 2964.00
16:32:39:296 -> 2941.00
16:32:39:297 -> 2908.00
16:32:39:298 -> 2966.00
16:32:39:299 -> 2999.00
16:32:39:301 -> 2978.00
16:32:39:303 -> 2940.00
16:32:39:304 -> 2985.00
16:32:39:304 -> 2999.00
16:32:39:305 -> 3020.00
16:32:39:307 -> 3019.00
16:32:39:308 -> 3051.00
16:32:39:309 -> 3022.00
16:32:39:310 -> 3007.00
16:32:39:311 -> 2998.00
16:32:39:313 -> 2989.00
16:32:39:314 -> 2914.00
16:32:39:315 -> 2931.00
16:32:39:316 -> 2963.00
16:32:39:317 -> 2971.00
16:32:39:318 -> 3016.00
16:32:39:320 -> 2973.00
16:32:39:321 -> 2990.00
16:32:39:322 -> 3054.00
16:32:39:323 -> 3062.00
16:32:39:324 -> 3030.00
16:32:39:326 -> 3034.00
16:32:39:327 -> 2978.00
16:32:39:328 -> 2956.00
16:32:39:330 -> 2974.00
16:32:39:330 -> 2998.00
16:32:39:332 -> 3037.00
16:32:39:333 -> 3006.00
16:32:39:334 -> 3049.00
16:32:39:335 -> 3143.00
16:32:39:336 -> 3016.00
16:32:39:338 -> 2934.00
16:32:39:339 -> 2957.00
16:32:39:367 -> 2943.00
16:32:39:372 -> 2940.00
16:32:39:372 -> 2999.00
16:32:39:372 -> 3011.00
16:32:39:372 -> 3000.00
16:32:39:372 -> 3047.00
16:32:39:372 -> 3030.00
16:32:39:372 -> 3024.00
16:32:39:372 -> 3028.00
16:32:39:372 -> 3064.00
16:32:39:372 -> 2990.00
16:32:39:372 -> 2928.00
16:32:39:372 -> 2973.00
16:32:39:372 -> 2990.00
16:32:39:372 -> 2983.00
16:32:39:372 -> 2960.00
16:32:39:372 -> 2971.00
16:32:39:372 -> 2974.00
16:32:39:372 -> 2948.00
16:32:39:372 -> 2952.00
16:32:39:372 -> 3044.00
16:32:39:372 -> 3015.00
16:32:39:372 -> 2980.00
16:32:39:372 -> 2934.00
16:32:39:372 -> 2924.00
16:32:39:378 -> 2960.00
16:32:39:378 -> 3070.00
16:32:39:378 -> 3051.00
16:32:39:378 -> 3046.00
16:32:39:378 -> 3067.00
16:32:39:385 -> 3031.00
16:32:39:385 -> 3017.00
16:32:39:385 -> 2980.00
16:32:39:385 -> 2991.00
16:32:39:385 -> 2998.00
16:32:39:385 -> 2999.00
16:32:39:385 -> 2966.00
16:32:39:385 -> 2931.00
16:32:39:385 -> 2996.00
16:32:39:395 -> 2999.00
16:32:39:395 -> 3021.00
16:32:39:395 -> 3050.00
16:32:39:395 -> 3062.00
16:32:39:395 -> 3088.00
16:32:39:395 -> 2988.00
16:32:39:395 -> 3051.00
16:32:39:396 -> 3008.00
16:32:39:396 -> 2985.00
16:32:39:397 -> 2981.00
16:32:39:398 -> 2985.00
16:32:39:399 -> 2988.00
16:32:39:401 -> 3026.00
16:32:39:402 -> 3032.00
16:32:39:403 -> 3023.00
16:32:39:404 -> 3041.00
16:32:39:405 -> 3110.00
16:32:39:407 -> 3103.00
16:32:39:408 -> 3035.00
16:32:39:409 -> 2985.00
16:32:39:410 -> 2986.00
16:32:39:411 -> 3010.00
16:32:39:412 -> 2998.00
16:32:39:414 -> 3005.00
16:32:39:415 -> 2994.00
16:32:39:416 -> 2959.00
16:32:39:417 -> 2890.00
16:32:39:418 -> 2943.00
16:32:39:420 -> 3015.00
16:32:39:421 -> 3011.00
16:32:39:422 -> 2999.00
16:32:39:423 -> 2976.00
16:32:39:424 -> 2959.00
16:32:39:426 -> 2990.00
16:32:39:427 -> 3013.00
16:32:39:428 -> 3022.00
16:32:39:445 -> 3077.00
16:32:39:445 -> 3039.00
16:32:39:445 -> 3060.00
16:32:39:445 -> 3099.00
16:32:39:445 -> 3006.00
16:32:39:445 -> 3028.00
16:32:39:445 -> 2992.00
16:32:39:445 -> 2970.00
16:32:39:445 -> 2966.00
16:32:39:445 -> 2991.00
16:32:39:445 -> 2981.00
16:32:39:445 -> 3005.00
16:32:39:445 -> 3052.00
16:32:39:445 -> 3023.00
16:32:39:449 -> 3011.00
16:32:39:449 -> 3029.00
16:32:39:449 -> 3013.00
16:32:39:479 -> 2994.00
16:32:39:479 -> 2995.00
16:32:39:479 -> 3032.00
16:32:39:479 -> 3043.00
16:32:39:479 -> 3038.00
16:32:39:479 -> 2959.00
16:32:39:479 -> 2943.00
16:32:39:479 -> 2976.00
16:32:39:479 -> 3009.00
16:32:39:479 -> 3000.00
16:32:39:479 -> 3032.00
16:32:39:479 -> 3026.00
16:32:39:479 -> 3003.00
16:32:39:479 -> 3021.00
16:32:39:479 -> 3007.00
16:32:39:479 -> 2972.00
16:32:39:479 -> 3037.00
16:32:39:479 -> 3031.00
16:32:39:479 -> 3023.00
16:32:39:479 -> 3043.00
16:32:39:479 -> 3061.00
16:32:39:482 -> 3046.00
16:32:39:482 -> 3004.00
16:32:39:482 -> 2987.00
16:32:39:482 -> 2995.00
16:32:39:482 -> 2986.00
16:32:39:482 -> 2976.00
16:32:39:482 -> 2971.00
16:32:39:483 -> 2982.00
16:32:39:484 -> 3088.00
16:32:39:485 -> 3017.00
16:32:39:486 -> 2967.00
16:32:39:487 -> 3003.00
16:32:39:489 -> 3031.00
16:32:39:490 -> 3006.00
16:32:39:491 -> 3125.00
16:32:39:492 -> 3110.00
16:32:39:493 -> 3028.00
16:32:39:495 -> 3008.00
16:32:39:496 -> 3111.00
16:32:39:497 -> 3147.00
16:32:39:498 -> 3054.00
16:32:39:499 -> 3004.00
16:32:39:501 -> 2931.00
16:32:39:502 -> 2964.00
16:32:39:503 -> 2932.00
16:32:39:504 -> 2951.00
16:32:39:505 -> 3023.00
16:32:39:507 -> 3046.00
16:32:39:508 -> 3120.00
16:32:39:509 -> 3045.00
16:32:39:510 -> 3028.00
16:32:39:511 -> 3034.00
16:32:39:512 -> 3033.00
16:32:39:514 -> 2954.00
16:32:39:515 -> 2971.00
16:32:39:516 -> 2998.00
16:32:39:517 -> 3001.00
16:32:39:518 -> 2942.00
16:32:39:520 -> 3031.00
16:32:39:521 -> 3060.00
16:32:39:522 -> 3073.00
16:32:39:523 -> 3094.00
16:32:39:524 -> 3025.00
16:32:39:526 -> 2986.00
16:32:39:544 -> 3031.00
16:32:39:544 -> 3053.00
16:32:39:544 -> 3030.00
16:32:39:544 -> 3017.00
16:32:39:544 -> 3023.00
16:32:39:544 -> 3010.00
16:32:39:544 -> 2995.00
16:32:39:544 -> 3021.00
16:32:39:544 -> 2980.00
16:32:39:544 -> 2973.00
16:32:39:544 -> 2990.00
16:32:39:544 -> 3001.00
16:32:39:544 -> 3004.00
16:32:39:544 -> 2993.00
16:32:39:563 -> 2946.00
16:32:39:563 -> 3006.00
16:32:39:563 -> 3094.00
16:32:39:563 -> 3109.00
16:32:39:563 -> 3052.00
16:32:39:563 -> 3067.00
16:32:39:563 -> 3023.00
16:32:39:563 -> 3017.00
16:32:39:563 -> 3015.00
16:32:39:563 -> 2991.00
16:32:39:563 -> 2949.00
16:32:39:563 -> 2937.00
16:32:39:563 -> 2941.00
16:32:39:563 -> 2995.00
16:32:39:563 -> 2910.00
16:32:39:563 -> 3001.00
16:32:39:563 -> 3042.00
16:32:39:586 -> 3020.00
16:32:39:586 -> 3063.00
16:32:39:586 -> 3022.00
16:32:39:586 -> 3030.00
16:32:39:586 -> 3084.00
16:32:39:586 -> 3094.00
16:32:39:586 -> 3063.00
16:32:39:586 -> 3098.00
16:32:39:586 -> 3054.00
16:32:39:586 -> 3037.00
16:32:39:586 -> 3021.00
16:32:39:586 -> 2922.00
16:32:39:586 -> 2936.00
16:32:39:586 -> 2924.00
16:32:39:586 -> 2946.00
16:32:39:586 -> 3040.00
16:32:39:586 -> 3022.00
16:32:39:603 -> 3008.00
16:32:39:603 -> 3020.00
16:32:39:603 -> 3040.00
16:32:39:603 -> 3037.00
16:32:39:603 -> 3060.00
16:32:39:603 -> 3078.00
16:32:39:603 -> 3059.00
16:32:39:603 -> 2985.00
16:32:39:603 -> 2943.00
16:32:39:603 -> 3010.00
16:32:39:603 -> 3000.00
16:32:39:603 -> 2994.00
16:32:39:603 -> 3026.00
16:32:39:603 -> 3020.00
16:32:39:603 -> 3023.00
16:32:39:603 -> 3060.00
16:32:39:603 -> 3062.00
16:32:39:609 -> 3060.00
16:32:39:609 -> 2961.00
16:32:39:609 -> 2999.00
16:32:39:609 -> 2995.00
16:32:39:619 -> 3032.00
16:32:39:619 -> 3042.00
16:32:39:619 -> 3035.00
16:32:39:619 -> 3048.00
16:32:39:619 -> 3034.00
16:32:39:619 -> 3039.00
16:32:39:619 -> 2972.00
16:32:39:619 -> 3003.00
16:32:39:619 -> 3032.00
16:32:39:623 -> 3042.00
16:32:39:623 -> 2998.00
16:32:39:623 -> 2994.00
16:32:39:623 -> 3026.00
16:32:39:631 -> 3007.00
16:32:39:631 -> 3029.00
16:32:39:631 -> 2942.00
16:32:39:631 -> 2957.00
16:32:39:631 -> 3016.00
16:32:39:631 -> 3052.00
16:32:39:646 -> 3050.00
16:32:39:646 -> 3003.00
16:32:39:646 -> 3016.00
16:32:39:646 -> 3020.00
16:32:39:646 -> 2996.00
16:32:39:646 -> 3012.00
16:32:39:646 -> 3028.00
16:32:39:646 -> 3021.00
16:32:39:646 -> 3016.00
16:32:39:646 -> 3077.00
16:32:39:646 -> 3044.00
16:32:39:646 -> 3094.00
16:32:39:647 -> 3048.00
16:32:39:647 -> 3089.00
16:32:39:648 -> 3055.00
16:32:39:649 -> 3031.00
16:32:39:651 -> 2955.00
16:32:39:652 -> 3056.00
16:32:39:653 -> 3092.00
16:32:39:654 -> 3064.00
16:32:39:655 -> 3022.00
16:32:39:659 -> 3073.00
16:32:39:660 -> 3103.00
16:32:39:660 -> 3034.00
16:32:39:661 -> 3014.00
16:32:39:662 -> 3002.00
16:32:39:662 -> 2990.00
16:32:39:664 -> 2934.00
16:32:39:665 -> 3024.00
16:32:39:666 -> 3067.00
16:32:39:667 -> 3036.00
16:32:39:668 -> 3016.00
16:32:39:670 -> 3026.00
16:32:39:671 -> 3030.00
16:32:39:672 -> 3030.00
16:32:39:673 -> 3052.00
16:32:39:674 -> 3070.00
16:32:39:675 -> 3017.00
16:32:39:677 -> 3004.00
16:32:39:678 -> 2976.00
16:32:39:710 -> 3009.00
16:32:39:710 -> 3022.00
16:32:39:710 -> 3046.00
16:32:39:710 -> 3050.00
16:32:39:710 -> 3059.00
16:32:39:710 -> 3013.00
16:32:39:710 -> 2984.00
16:32:39:710 -> 3007.00
16:32:39:710 -> 3073.00
16:32:39:710 -> 3081.00
16:32:39:710 -> 3072.00
16:32:39:710 -> 3033.00
16:32:39:710 -> 2997.00
16:32:39:710 -> 2982.00
16:32:39:710 -> 2936.00
16:32:39:710 -> 2954.00
16:32:39:710 -> 2896.00
16:32:39:710 -> 2946.00
16:32:39:710 -> 2976.00
16:32:39:710 -> 2952.00
16:32:39:710 -> 2842.00
16:32:39:710 -> 3093.00
16:32:39:710 -> 3191.00
16:32:39:710 -> 3141.00
16:32:39:710 -> 3155.00
16:32:39:710 -> 3096.00
16:32:39:710 -> 3034.00
16:32:39:732 -> 2997.00
16:32:39:732 -> 2930.00
16:32:39:732 -> 3128.00
16:32:39:732 -> 3164.00
16:32:39:732 -> 3148.00
16:32:39:732 -> 3096.00
16:32:39:732 -> 2986.00
16:32:39:732 -> 2971.00
16:32:39:732 -> 3013.00
16:32:39:732 -> 2987.00
16:32:39:732 -> 3075.00
16:32:39:732 -> 3013.00
16:32:39:732 -> 2960.00
16:32:39:732 -> 2962.00
16:32:39:732 -> 3007.00
16:32:39:732 -> 3032.00
16:32:39:732 -> 3055.00
16:32:39:732 -> 3066.00
16:32:39:751 -> 3017.00
16:32:39:751 -> 3022.00
16:32:39:751 -> 2996.00
16:32:39:751 -> 2975.00
16:32:39:751 -> 3018.00
16:32:39:751 -> 3025.00
16:32:39:751 -> 3046.00
16:32:39:751 -> 3048.00
16:32:39:751 -> 3053.00
16:32:39:751 -> 3062.00
16:32:39:751 -> 3039.00
16:32:39:751 -> 3024.00
16:32:39:751 -> 2891.00
16:32:39:751 -> 2935.00
16:32:39:751 -> 3101.00
16:32:39:751 -> 3119.00
16:32:39:754 -> 3052.00
16:32:39:754 -> 3033.00
16:32:39:754 -> 3000.00
16:32:39:775 -> 2982.00
16:32:39:775 -> 2916.00
16:32:39:775 -> 2935.00
16:32:39:775 -> 2937.00
16:32:39:775 -> 2955.00
16:32:39:775 -> 2961.00
16:32:39:775 -> 3026.00
16:32:39:775 -> 3003.00
16:32:39:775 -> 2999.00
16:32:39:775 -> 3043.00
16:32:39:775 -> 3027.00
16:32:39:788 -> 2970.00
16:32:39:788 -> 3052.00
16:32:39:788 -> 3099.00
16:32:39:788 -> 3111.00
16:32:39:788 -> 3114.00
16:32:39:788 -> 3083.00
16:32:39:788 -> 3055.00
16:32:39:788 -> 3038.00
16:32:39:788 -> 3041.00
16:32:39:788 -> 3004.00
16:32:39:788 -> 3056.00
16:32:39:788 -> 3050.00
16:32:39:788 -> 3071.00
16:32:39:788 -> 3067.00
16:32:39:788 -> 3074.00
16:32:39:788 -> 2996.00
16:32:39:788 -> 3012.00
16:32:39:809 -> 3067.00
16:32:39:809 -> 3062.00
16:32:39:809 -> 3144.00
16:32:39:809 -> 3063.00
16:32:39:809 -> 3069.00
16:32:39:809 -> 3056.00
16:32:39:809 -> 3011.00
16:32:39:809 -> 3021.00
16:32:39:809 -> 3100.00
16:32:39:809 -> 3082.00
16:32:39:809 -> 3013.00
16:32:39:809 -> 3011.00
16:32:39:809 -> 3027.00
16:32:39:809 -> 3052.00
16:32:39:809 -> 3005.00
16:32:39:809 -> 2949.00
16:32:39:809 -> 2941.00
16:32:39:809 -> 3038.00
16:32:39:812 -> 3060.00
16:32:39:812 -> 3073.00
16:32:39:812 -> 3076.00
16:32:39:816 -> 3075.00
16:32:39:816 -> 3048.00
16:32:39:823 -> 3082.00
16:32:39:823 -> 2970.00
16:32:39:823 -> 3020.00
16:32:39:823 -> 3035.00
16:32:39:823 -> 3088.00
16:32:39:823 -> 3068.00
16:32:39:826 -> 3087.00
16:32:39:826 -> 3056.00
16:32:39:826 -> 3047.00
16:32:39:846 -> 3051.00
16:32:39:846 -> 3037.00
16:32:39:846 -> 3020.00
16:32:39:846 -> 3020.00
16:32:39:846 -> 2985.00
16:32:39:846 -> 3066.00
16:32:39:846 -> 3077.00
16:32:39:846 -> 3045.00
16:32:39:846 -> 3056.00
16:32:39:846 -> 3001.00
16:32:39:846 -> 3026.00
16:32:39:846 -> 3034.00
16:32:39:846 -> 3022.00
16:32:39:846 -> 2988.00
16:32:39:846 -> 3034.00
16:32:39:846 -> 3039.00
16:32:39:846 -> 3075.00
16:32:39:850 -> 3077.00
16:32:39:850 -> 3054.00
16:32:39:901 -> 3056.00
16:32:39:901 -> 3047.00
16:32:39:901 -> 3088.00
16:32:39:901 -> 3027.00
16:32:39:901 -> 3020.00
16:32:39:901 -> 2984.00
16:32:39:930 -> 3023.00
16:32:39:930 -> 3033.00
16:32:39:930 -> 3025.00
16:32:39:930 -> 2951.00
16:32:39:930 -> 2961.00
16:32:39:930 -> 3028.00
16:32:39:930 -> 3093.00
16:32:39:930 -> 3052.00
16:32:39:930 -> 3034.00
16:32:39:930 -> 3108.00
16:32:39:930 -> 3103.00
16:32:39:930 -> 3117.00
16:32:39:930 -> 3091.00
16:32:39:930 -> 3081.00
16:32:39:930 -> 3013.00
16:32:39:930 -> 3032.00
16:32:39:930 -> 2989.00
16:32:39:930 -> 3084.00
16:32:39:930 -> 2973.00
16:32:39:930 -> 2973.00
16:32:39:930 -> 3012.00
16:32:39:930 -> 3133.00
16:32:39:930 -> 3124.00
16:32:39:930 -> 3070.00
16:32:39:930 -> 3019.00
16:32:39:930 -> 3007.00
16:32:39:930 -> 3024.00
16:32:39:930 -> 3032.00
16:32:39:930 -> 3054.00
16:32:39:930 -> 3079.00
16:32:39:930 -> 3036.00
16:32:39:930 -> 3057.00
16:32:39:930 -> 3033.00
16:32:39:930 -> 2986.00
16:32:39:930 -> 2946.00
16:32:39:930 -> 2991.00
16:32:39:930 -> 3011.00
16:32:39:930 -> 3035.00
16:32:39:930 -> 3052.00
16:32:39:930 -> 3079.00
16:32:39:930 -> 3070.00
16:32:39:930 -> 3087.00
16:32:39:930 -> 3127.00
16:32:39:930 -> 3102.00
16:32:39:930 -> 3087.00
16:32:39:930 -> 3062.00
16:32:39:930 -> 2994.00
16:32:39:930 -> 2996.00
16:32:39:930 -> 2984.00
16:32:39:930 -> 2954.00
16:32:39:951 -> 2961.00
16:32:39:951 -> 3038.00
16:32:39:951 -> 3083.00
16:32:39:951 -> 3062.00
16:32:39:951 -> 3064.00
16:32:39:951 -> 3043.00
16:32:39:951 -> 2990.00
16:32:39:951 -> 2975.00
16:32:39:951 -> 2972.00
16:32:39:951 -> 3023.00
16:32:39:951 -> 3110.00
16:32:39:951 -> 3084.00
16:32:39:951 -> 3047.00
16:32:39:951 -> 3096.00
16:32:39:951 -> 3111.00
16:32:39:951 -> 3116.00
16:32:39:951 -> 3067.00
16:32:39:951 -> 2954.00
16:32:39:951 -> 2950.00
16:32:39:951 -> 3011.00
16:32:39:951 -> 3022.00
16:32:39:951 -> 3031.00
16:32:39:951 -> 3048.00
16:32:39:951 -> 3044.00
16:32:39:951 -> 3114.00
16:32:39:951 -> 3070.00
16:32:39:951 -> 3075.00
16:32:39:951 -> 3104.00
16:32:39:951 -> 3089.00
16:32:39:951 -> 3075.00
16:32:39:969 -> 3074.00
16:32:39:969 -> 3064.00
16:32:39:969 -> 3023.00
16:32:39:969 -> 3021.00
16:32:39:969 -> 2957.00
16:32:39:969 -> 2979.00
16:32:39:969 -> 3022.00
16:32:39:969 -> 3041.00
16:32:39:969 -> 3047.00
16:32:39:969 -> 3015.00
16:32:39:969 -> 3062.00
16:32:39:969 -> 3071.00
16:32:39:969 -> 3069.00
16:32:39:969 -> 3115.00
16:32:39:969 -> 3057.00
16:32:39:996 -> 3031.00
16:32:39:996 -> 3068.00
16:32:39:996 -> 3087.00
16:32:39:996 -> 3090.00
16:32:39:996 -> 3116.00
16:32:39:996 -> 3049.00
16:32:39:996 -> 3008.00
16:32:39:996 -> 3008.00
16:32:39:996 -> 3024.00
16:32:39:996 -> 3025.00
16:32:39:996 -> 3012.00
16:32:39:996 -> 2997.00
16:32:39:996 -> 3036.00
16:32:39:996 -> 3050.00
16:32:39:996 -> 3089.00
16:32:39:996 -> 3104.00
16:32:39:996 -> 3057.00
16:32:39:996 -> 2987.00
16:32:39:996 -> 3054.00
16:32:39:996 -> 3082.00
16:32:39:996 -> 3084.00
16:32:39:996 -> 3085.00
16:32:39:996 -> 3052.00
16:32:40:005 -> 3004.00
16:32:40:005 -> 2981.00
16:32:40:005 -> 2997.00
16:32:40:005 -> 2998.00
16:32:40:005 -> 2957.00
16:32:40:005 -> 3045.00
16:32:40:005 -> 3042.00
16:32:40:020 -> 2977.00
16:32:40:020 -> 3084.00
16:32:40:020 -> 3120.00
16:32:40:020 -> 3102.00
16:32:40:020 -> 3083.00
16:32:40:020 -> 3063.00
16:32:40:020 -> 3056.00
16:32:40:020 -> 3100.00
16:32:40:020 -> 3053.00
16:32:40:020 -> 2971.00
16:32:40:020 -> 3039.00
16:32:40:020 -> 2990.00
16:32:40:020 -> 3047.00
16:32:40:023 -> 3030.00
16:32:40:023 -> 3098.00
16:32:40:032 -> 3126.00
16:32:40:032 -> 3062.00
16:32:40:032 -> 3021.00
16:32:40:032 -> 3048.00
16:32:40:032 -> 3104.00
16:32:40:032 -> 3077.00
16:32:40:032 -> 3088.00
16:32:40:032 -> 3041.00
16:32:40:043 -> 3032.00
16:32:40:043 -> 3037.00
16:32:40:043 -> 3025.00
16:32:40:043 -> 3031.00
16:32:40:043 -> 2993.00
16:32:40:043 -> 3030.00
16:32:40:043 -> 3059.00
16:32:40:043 -> 3038.00
16:32:40:043 -> 3050.00
16:32:40:049 -> 3085.00
16:32:40:049 -> 3049.00
16:32:40:049 -> 3056.00
16:32:40:049 -> 3004.00
16:32:40:049 -> 2994.00
16:32:40:049 -> 2981.00
16:32:40:053 -> 3093.00
16:32:40:053 -> 3175.00
16:32:40:053 -> 3156.00
16:32:40:067 -> 3153.00
16:32:40:067 -> 3084.00
16:32:40:067 -> 3066.00
16:32:40:067 -> 3052.00
16:32:40:067 -> 3009.00
16:32:40:067 -> 3021.00
16:32:40:067 -> 3037.00
16:32:40:067 -> 3018.00
16:32:40:067 -> 2944.00
16:32:40:067 -> 2996.00
16:32:40:067 -> 3058.00
16:32:40:095 -> 3108.00
16:32:40:095 -> 3078.00
16:32:40:095 -> 3103.00
16:32:40:095 -> 3097.00
16:32:40:095 -> 3058.00
16:32:40:095 -> 3046.00
16:32:40:095 -> 3052.00
16:32:40:095 -> 3003.00
16:32:40:095 -> 3021.00
16:32:40:095 -> 3034.00
16:32:40:095 -> 3004.00
16:32:40:095 -> 3029.00
16:32:40:095 -> 3067.00
16:32:40:095 -> 3059.00
16:32:40:095 -> 3021.00
16:32:40:095 -> 3009.00
16:32:40:095 -> 3043.00
16:32:40:095 -> 3068.00
16:32:40:095 -> 3027.00
16:32:40:095 -> 3062.00
16:32:40:095 -> 3017.00
16:32:40:095 -> 3069.00
16:32:40:095 -> 2993.00
16:32:40:095 -> 3049.00
16:32:40:101 -> 3058.00
16:32:40:101 -> 3090.00
16:32:40:101 -> 3041.00
16:32:40:101 -> 3063.00
16:32:40:101 -> 3021.00
16:32:40:112 -> 3037.00
16:32:40:112 -> 3102.00
16:32:40:112 -> 3099.00
16:32:40:112 -> 3083.00
16:32:40:112 -> 3122.00
16:32:40:112 -> 3086.00
16:32:40:112 -> 3058.00
16:32:40:112 -> 3018.00
16:32:40:112 -> 3021.00
16:32:40:132 -> 3057.00
16:32:40:132 -> 3092.00
16:32:40:132 -> 3070.00
16:32:40:132 -> 3020.00
16:32:40:132 -> 2962.00
16:32:40:132 -> 3029.00
16:32:40:132 -> 3072.00
16:32:40:132 -> 3060.00
16:32:40:132 -> 3045.00
16:32:40:132 -> 3079.00
16:32:40:132 -> 3061.00
16:32:40:132 -> 3054.00
16:32:40:132 -> 3122.00
16:32:40:132 -> 3142.00
16:32:40:132 -> 3118.00
16:32:40:132 -> 3081.00
16:32:40:132 -> 3041.00
16:32:40:136 -> 3017.00
16:32:40:136 -> 3106.00
16:32:40:136 -> 3054.00
16:32:40:136 -> 3041.00
16:32:40:146 -> 3050.00
16:32:40:146 -> 3029.00
16:32:40:146 -> 3052.00
16:32:40:146 -> 3053.00
16:32:40:146 -> 3050.00
16:32:40:146 -> 3006.00
16:32:40:146 -> 2984.00
16:32:40:146 -> 3037.00
16:32:40:148 -> 3047.00
16:32:40:148 -> 3105.00
16:32:40:162 -> 3088.00
16:32:40:162 -> 3098.00
16:32:40:162 -> 3107.00
16:32:40:162 -> 3105.00
16:32:40:162 -> 3086.00
16:32:40:162 -> 3091.00
16:32:40:162 -> 3056.00
16:32:40:162 -> 2988.00
16:32:40:162 -> 2982.00
16:32:40:162 -> 2984.00
16:32:40:162 -> 3010.00
16:32:40:174 -> 3022.00
16:32:40:174 -> 3108.00
16:32:40:174 -> 3065.00
16:32:40:174 -> 3062.00
16:32:40:174 -> 3034.00
16:32:40:174 -> 3062.00
16:32:40:174 -> 3076.00
16:32:40:174 -> 3073.00
16:32:40:174 -> 3064.00
16:32:40:174 -> 3055.00
16:32:40:174 -> 3018.00
16:32:40:175 -> 3005.00
16:32:40:184 -> 2998.00
16:32:40:184 -> 3048.00
16:32:40:185 -> 3065.00
16:32:40:185 -> 3081.00
16:32:40:185 -> 3047.00
16:32:40:185 -> 3068.00
16:32:40:185 -> 3047.00
16:32:40:185 -> 3019.00
16:32:40:192 -> 3076.00
16:32:40:192 -> 3041.00
16:32:40:192 -> 3078.00
16:32:40:192 -> 3075.00
16:32:40:192 -> 3049.00
16:32:40:196 -> 3030.00
16:32:40:196 -> 3022.00
16:32:40:196 -> 3101.00
16:32:40:196 -> 3106.00
16:32:40:206 -> 3018.00
16:32:40:206 -> 3022.00
16:32:40:206 -> 3043.00
16:32:40:206 -> 3075.00
16:32:40:209 -> 3089.00
16:32:40:209 -> 3093.00
16:32:40:209 -> 3049.00
16:32:40:209 -> 3080.00
16:32:40:209 -> 3002.00
16:32:40:209 -> 3034.00
16:32:40:209 -> 3067.00
16:32:40:213 -> 3094.00
16:32:40:213 -> 3091.00
16:32:40:213 -> 3058.00
16:32:40:214 -> 3055.00
16:32:40:220 -> 3066.00
16:32:40:220 -> 3062.00
16:32:40:220 -> 3103.00
16:32:40:220 -> 3064.00
16:32:40:220 -> 3094.00
16:32:40:223 -> 3061.00
16:32:40:223 -> 2991.00
16:32:40:223 -> 2941.00
16:32:40:226 -> 3067.00
16:32:40:231 -> 3087.00
16:32:40:231 -> 3110.00
16:32:40:231 -> 3097.00
16:32:40:231 -> 3104.00
16:32:40:231 -> 3080.00
16:32:40:235 -> 3064.00
16:32:40:235 -> 3062.00
16:32:40:235 -> 3059.00
16:32:40:236 -> 3071.00
16:32:40:236 -> 3077.00
16:32:40:237 -> 3028.00
16:32:40:249 -> 3010.00
16:32:40:249 -> 2992.00
16:32:40:249 -> 3027.00
16:32:40:249 -> 3038.00
16:32:40:249 -> 3057.00
16:32:40:249 -> 3091.00
16:32:40:249 -> 3107.00
16:32:40:249 -> 3132.00
16:32:40:249 -> 3112.00
16:32:40:249 -> 3106.00
16:32:40:253 -> 3106.00
16:32:40:253 -> 3032.00
16:32:40:253 -> 2958.00
16:32:40:257 -> 3026.00
16:32:40:257 -> 3040.00
16:32:40:257 -> 3058.00
16:32:40:262 -> 3022.00
16:32:40:262 -> 3013.00
16:32:40:262 -> 3024.00
16:32:40:262 -> 3016.00
16:32:40:280 -> 3045.00
16:32:40:280 -> 3050.00
16:32:40:280 -> 3101.00
16:32:40:280 -> 3104.00
16:32:40:280 -> 3133.00
16:32:40:280 -> 3117.00
16:32:40:280 -> 3072.00
16:32:40:280 -> 3020.00
16:32:40:280 -> 3024.00
16:32:40:280 -> 3046.00
16:32:40:280 -> 3049.00
16:32:40:280 -> 3053.00
16:32:40:280 -> 3044.00
16:32:40:280 -> 3064.00
16:32:40:280 -> 3070.00
16:32:40:280 -> 3072.00
16:32:40:294 -> 3088.00
16:32:40:294 -> 3091.00
16:32:40:294 -> 3116.00
16:32:40:294 -> 3067.00
16:32:40:294 -> 3063.00
16:32:40:294 -> 3066.00
16:32:40:294 -> 3081.00
16:32:40:294 -> 3083.00
16:32:40:294 -> 3074.00
16:32:40:294 -> 3052.00
16:32:40:294 -> 3060.00
16:32:40:294 -> 3053.00
16:32:40:302 -> 3012.00
16:32:40:302 -> 2951.00
16:32:40:302 -> 2921.00
16:32:40:302 -> 3029.00
16:32:40:302 -> 2992.00
16:32:40:302 -> 3015.00
16:32:40:310 -> 3021.00
16:32:40:310 -> 3139.00
16:32:40:310 -> 3137.00
16:32:40:310 -> 3118.00
16:32:40:310 -> 3097.00
16:32:40:310 -> 3092.00
16:32:40:325 -> 3117.00
16:32:40:325 -> 3086.00
16:32:40:325 -> 3081.00
16:32:40:325 -> 3086.00
16:32:40:325 -> 3036.00
16:32:40:325 -> 3042.00
16:32:40:325 -> 3042.00
16:32:40:325 -> 3096.00
16:32:40:325 -> 3063.00
16:32:40:325 -> 3051.00
16:32:40:325 -> 3020.00
16:32:40:325 -> 2964.00
16:32:40:325 -> 2971.00
16:32:40:327 -> 3108.00
16:32:40:327 -> 3136.00
16:32:40:340 -> 3115.00
16:32:40:340 -> 3135.00
16:32:40:340 -> 3136.00
16:32:40:340 -> 3116.00
16:32:40:340 -> 3117.00
16:32:40:340 -> 3115.00
16:32:40:340 -> 3084.00
16:32:40:340 -> 3030.00
16:32:40:340 -> 3005.00
16:32:40:340 -> 2981.00
16:32:40:349 -> 3042.00
16:32:40:349 -> 3006.00
16:32:40:349 -> 3034.00
16:32:40:349 -> 3039.00
16:32:40:349 -> 3086.00
16:32:40:349 -> 3137.00
16:32:40:349 -> 3079.00
16:32:40:349 -> 3086.00
16:32:40:351 -> 3090.00
16:32:40:351 -> 3113.00
16:32:40:356 -> 3098.00
16:32:40:356 -> 3053.00
16:32:40:356 -> 3042.00
16:32:40:356 -> 3029.00
16:32:40:358 -> 3012.00
16:32:40:358 -> 3008.00
16:32:40:364 -> 2960.00
16:32:40:364 -> 3053.00
16:32:40:364 -> 3070.00
16:32:40:364 -> 3081.00
16:32:40:364 -> 3065.00
16:32:40:369 -> 3092.00
16:32:40:369 -> 3083.00
16:32:40:369 -> 3063.00
16:32:40:369 -> 3015.00
16:32:40:369 -> 3098.00
16:32:40:372 -> 3094.00
16:32:40:378 -> 3043.00
16:32:40:378 -> 3059.00
16:32:40:378 -> 3101.00
16:32:40:378 -> 3087.00
16:32:40:378 -> 3051.00
16:32:40:378 -> 2981.00
16:32:40:393 -> 3047.00
16:32:40:393 -> 3059.00
16:32:40:393 -> 3084.00
16:32:40:393 -> 3118.00
16:32:40:393 -> 3100.00
16:32:40:393 -> 3039.00
16:32:40:393 -> 3002.00
16:32:40:393 -> 3051.00
16:32:40:396 -> 3141.00
16:32:40:396 -> 3130.00
16:32:40:396 -> 3102.00
16:32:40:396 -> 3145.00
16:32:40:396 -> 3133.00
16:32:40:396 -> 3092.00
16:32:40:396 -> 3019.00
16:32:40:398 -> 2924.00
16:32:40:400 -> 2954.00
16:32:40:400 -> 3100.00
16:32:40:428 -> 3130.00
16:32:40:428 -> 3103.00
16:32:40:428 -> 3099.00
16:32:40:428 -> 3048.00
16:32:40:429 -> 3048.00
16:32:40:429 -> 3088.00
16:32:40:429 -> 3099.00
16:32:40:429 -> 3079.00
16:32:40:429 -> 3102.00
16:32:40:429 -> 3097.00
16:32:40:429 -> 3079.00
16:32:40:429 -> 3082.00
16:32:40:429 -> 3040.00
16:32:40:429 -> 3072.00
16:32:40:429 -> 3070.00
16:32:40:429 -> 3032.00
16:32:40:429 -> 3037.00
16:32:40:429 -> 3042.00
16:32:40:429 -> 3035.00
16:32:40:429 -> 3029.00
16:32:40:429 -> 3080.00
16:32:40:429 -> 3074.00
16:32:40:429 -> 3084.00
16:32:40:429 -> 3102.00
16:32:40:429 -> 3103.00
16:32:40:430 -> 3096.00
16:32:40:431 -> 3055.00
16:32:40:432 -> 3031.00
16:32:40:434 -> 3066.00
16:32:40:435 -> 3048.00
16:32:40:436 -> 3084.00
16:32:40:437 -> 3057.00
16:32:40:438 -> 3085.00
16:32:40:440 -> 3112.00
16:32:40:441 -> 3115.00
16:32:40:444 -> 3098.00
16:32:40:444 -> 3043.00
16:32:40:447 -> 3018.00
16:32:40:447 -> 2994.00
16:32:40:449 -> 3078.00
16:32:40:449 -> 3130.00
16:32:40:449 -> 3068.00
16:32:40:450 -> 3029.00
16:32:40:451 -> 3080.00
16:32:40:453 -> 3127.00
16:32:40:454 -> 3177.00
16:32:40:455 -> 3105.00
16:32:40:456 -> 3081.00
16:32:40:457 -> 3045.00
16:32:40:459 -> 3045.00
16:32:40:460 -> 3037.00
16:32:40:462 -> 3047.00
16:32:40:463 -> 3058.00
16:32:40:463 -> 3054.00
16:32:40:465 -> 3081.00
16:32:40:475 -> 3093.00
16:32:40:480 -> 3138.00
16:32:40:480 -> 3088.00
16:32:40:480 -> 3123.00
16:32:40:480 -> 3100.00
16:32:40:480 -> 3036.00
16:32:40:480 -> 3063.00
16:32:40:480 -> 3080.00
16:32:40:480 -> 3121.00
16:32:40:480 -> 3097.00
16:32:40:480 -> 3048.00
16:32:40:480 -> 3080.00
16:32:40:481 -> 3005.00
16:32:40:481 -> 3026.00
16:32:40:483 -> 3058.00
16:32:40:485 -> 3103.00
16:32:40:485 -> 3052.00
16:32:40:486 -> 3051.00
16:32:40:487 -> 3083.00
16:32:40:495 -> 3135.00
16:32:40:495 -> 3083.00
16:32:40:495 -> 3078.00
16:32:40:495 -> 3098.00
16:32:40:495 -> 3104.00
16:32:40:495 -> 3106.00
16:32:40:498 -> 3046.00
16:32:40:498 -> 3019.00
16:32:40:498 -> 3058.00
16:32:40:500 -> 3030.00
16:32:40:500 -> 3075.00
16:32:40:502 -> 3068.00
16:32:40:503 -> 3018.00
16:32:40:504 -> 3073.00
16:32:40:505 -> 3075.00
16:32:40:506 -> 3082.00
16:32:40:507 -> 3057.00
16:32:40:509 -> 3043.00
16:32:40:510 -> 3101.00
16:32:40:513 -> 3120.00
16:32:40:513 -> 3095.00
16:32:40:513 -> 3098.00
16:32:40:515 -> 3061.00
16:32:40:518 -> 3053.00
16:32:40:533 -> 3017.00
16:32:40:533 -> 3021.00
16:32:40:533 -> 3038.00
16:32:40:533 -> 3074.00
16:32:40:533 -> 3072.00
16:32:40:533 -> 3057.00
16:32:40:533 -> 3016.00
16:32:40:533 -> 3007.00
16:32:40:533 -> 2989.00
16:32:40:533 -> 3045.00
16:32:40:533 -> 3051.00
16:32:40:534 -> 3129.00
16:32:40:534 -> 3116.00
16:32:40:534 -> 3085.00
16:32:40:534 -> 3062.00
16:32:40:536 -> 3085.00
16:32:40:544 -> 3031.00
16:32:40:544 -> 3049.00
16:32:40:544 -> 3056.00
16:32:40:544 -> 3080.00
16:32:40:544 -> 3035.00
16:32:40:544 -> 3034.00
16:32:40:544 -> 3124.00
16:32:40:549 -> 3164.00
16:32:40:549 -> 3096.00
16:32:40:549 -> 3119.00
16:32:40:549 -> 3085.00
16:32:40:549 -> 3088.00
16:32:40:551 -> 3090.00
16:32:40:551 -> 3072.00
16:32:40:553 -> 3070.00
16:32:40:554 -> 3034.00
16:32:40:559 -> 3037.00
16:32:40:559 -> 3031.00
16:32:40:559 -> 2974.00
16:32:40:559 -> 3083.00
16:32:40:573 -> 3130.00
16:32:40:573 -> 3111.00
16:32:40:573 -> 3074.00
16:32:40:573 -> 3078.00
16:32:40:573 -> 3029.00
16:32:40:573 -> 3124.00
16:32:40:573 -> 3186.00
16:32:40:573 -> 3148.00
16:32:40:573 -> 3102.00
16:32:40:573 -> 3086.00
16:32:40:573 -> 3079.00
16:32:40:573 -> 3095.00
16:32:40:583 -> 3093.00
16:32:40:583 -> 3072.00
16:32:40:583 -> 2995.00
16:32:40:583 -> 2981.00
16:32:40:583 -> 3049.00
16:32:40:583 -> 3070.00
16:32:40:583 -> 3075.00
16:32:40:583 -> 3084.00
16:32:40:587 -> 3094.00
16:32:40:587 -> 3086.00
16:32:40:587 -> 3102.00
16:32:40:587 -> 3090.00
16:32:40:601 -> 3107.00
16:32:40:601 -> 3124.00
16:32:40:601 -> 3107.00
16:32:40:601 -> 3080.00
16:32:40:601 -> 3072.00
16:32:40:601 -> 3061.00
16:32:40:601 -> 3050.00
16:32:40:601 -> 3044.00
16:32:40:601 -> 3028.00
16:32:40:601 -> 3014.00
16:32:40:601 -> 3047.00
16:32:40:601 -> 3083.00
16:32:40:616 -> 3064.00
16:32:40:616 -> 3058.00
16:32:40:616 -> 3019.00
16:32:40:616 -> 2978.00
16:32:40:616 -> 3029.00
16:32:40:616 -> 3153.00
16:32:40:616 -> 3129.00
16:32:40:616 -> 3132.00
16:32:40:616 -> 3117.00
16:32:40:616 -> 3074.00
16:32:40:616 -> 3058.00
16:32:40:616 -> 3052.00
16:32:40:621 -> 3078.00
16:32:40:621 -> 3055.00
16:32:40:621 -> 3035.00
16:32:40:621 -> 3085.00
16:32:40:627 -> 3117.00
16:32:40:627 -> 3086.00
16:32:40:627 -> 3079.00
16:32:40:627 -> 3065.00
16:32:40:627 -> 3131.00
16:32:40:628 -> 3117.00
16:32:40:630 -> 3076.00
16:32:40:630 -> 3102.00
16:32:40:632 -> 3093.00
16:32:40:634 -> 3081.00
16:32:40:634 -> 3058.00
16:32:40:641 -> 3066.00
16:32:40:641 -> 3039.00
16:32:40:641 -> 3067.00
16:32:40:641 -> 3058.00
16:32:40:641 -> 3029.00
16:32:40:641 -> 3039.00
16:32:40:644 -> 3106.00
16:32:40:644 -> 3120.00
16:32:40:644 -> 3125.00
16:32:40:654 -> 3120.00
16:32:40:676 -> 3122.00
16:32:40:676 -> 3109.00
16:32:40:676 -> 3062.00
16:32:40:676 -> 3011.00
16:32:40:676 -> 3034.00
16:32:40:676 -> 3062.00
16:32:40:676 -> 3074.00
16:32:40:676 -> 3086.00
16:32:40:676 -> 3170.00
16:32:40:676 -> 3096.00
16:32:40:676 -> 3033.00
16:32:40:676 -> 3053.00
16:32:40:676 -> 3057.00
16:32:40:676 -> 3075.00
16:32:40:676 -> 3041.00
16:32:40:682 -> 3076.00
16:32:40:682 -> 3102.00
16:32:40:682 -> 3109.00
16:32:40:682 -> 3109.00
16:32:40:682 -> 3137.00
16:32:40:682 -> 3113.00
16:32:40:682 -> 3089.00
16:32:40:682 -> 3085.00
16:32:40:682 -> 3057.00
16:32:40:682 -> 3046.00
16:32:40:682 -> 3090.00
16:32:40:682 -> 3073.00
16:32:40:682 -> 3043.00
16:32:40:682 -> 3023.00
16:32:40:682 -> 3061.00
16:32:40:691 -> 3092.00
16:32:40:691 -> 3112.00
16:32:40:691 -> 3120.00
16:32:40:691 -> 3134.00
16:32:40:691 -> 3132.00
16:32:40:691 -> 3113.00
16:32:40:691 -> 3076.00
16:32:40:691 -> 3052.00
16:32:40:698 -> 3069.00
16:32:40:698 -> 3040.00
16:32:40:698 -> 3054.00
16:32:40:698 -> 3058.00
16:32:40:698 -> 3087.00
16:32:40:698 -> 3058.00
16:32:40:712 -> 3089.00
16:32:40:712 -> 3058.00
16:32:40:712 -> 3073.00
16:32:40:712 -> 3061.00
16:32:40:712 -> 3059.00
16:32:40:712 -> 3087.00
16:32:40:712 -> 3039.00
16:32:40:712 -> 3079.00
16:32:40:712 -> 3168.00
16:32:40:712 -> 3125.00
16:32:40:712 -> 3117.00
16:32:40:718 -> 3111.00
16:32:40:718 -> 3076.00
16:32:40:718 -> 3056.00
16:32:40:718 -> 3003.00
16:32:40:718 -> 3066.00
16:32:40:729 -> 3044.00
16:32:40:729 -> 3038.00
16:32:40:729 -> 3102.00
16:32:40:729 -> 3098.00
16:32:40:729 -> 3042.00
16:32:40:729 -> 3015.00
16:32:40:729 -> 3109.00
16:32:40:729 -> 3102.00
16:32:40:729 -> 3142.00
16:32:40:729 -> 3135.00
16:32:40:731 -> 3175.00
16:32:40:731 -> 3124.00
16:32:40:732 -> 3115.00
16:32:40:734 -> 3108.00
16:32:40:735 -> 3084.00
16:32:40:737 -> 3046.00
16:32:40:737 -> 3102.00
16:32:40:739 -> 3074.00
16:32:40:740 -> 3105.00
16:32:40:742 -> 3093.00
16:32:40:742 -> 3084.00
16:32:40:743 -> 3063.00
16:32:40:744 -> 3032.00
16:32:40:745 -> 3045.00
16:32:40:747 -> 3109.00
16:32:40:751 -> 3101.00
16:32:40:751 -> 3115.00
16:32:40:751 -> 3113.00
16:32:40:752 -> 3087.00
16:32:40:753 -> 3088.00
16:32:40:754 -> 3074.00
16:32:40:755 -> 3046.00
16:32:40:756 -> 3023.00
16:32:40:757 -> 3039.00
16:32:40:759 -> 3090.00
16:32:40:768 -> 3083.00
16:32:40:768 -> 3100.00
16:32:40:768 -> 3074.00
16:32:40:768 -> 3061.00
16:32:40:768 -> 3066.00
16:32:40:768 -> 3124.00
16:32:40:768 -> 3123.00
16:32:40:768 -> 3110.00
16:32:40:778 -> 3107.00
16:32:40:778 -> 3113.00
16:32:40:778 -> 3102.00
16:32:40:778 -> 3079.00
16:32:40:778 -> 3087.00
16:32:40:778 -> 3073.00
16:32:40:778 -> 3068.00
16:32:40:778 -> 3050.00
16:32:40:789 -> 3079.00
16:32:40:789 -> 3071.00
16:32:40:789 -> 3086.00
16:32:40:789 -> 3049.00
16:32:40:789 -> 3130.00
16:32:40:789 -> 3073.00
16:32:40:789 -> 3076.00
16:32:40:789 -> 3052.00
16:32:40:789 -> 3081.00
16:32:40:804 -> 3087.00
16:32:40:804 -> 3087.00
16:32:40:804 -> 3089.00
16:32:40:804 -> 3085.00
16:32:40:804 -> 3108.00
16:32:40:804 -> 3099.00
16:32:40:804 -> 3071.00
16:32:40:804 -> 3002.00
16:32:40:804 -> 3013.00
16:32:40:804 -> 3062.00
16:32:40:804 -> 3054.00
16:32:40:804 -> 3007.00
16:32:40:804 -> 3100.00
16:32:40:813 -> 3144.00
16:32:40:813 -> 3143.00
16:32:40:813 -> 3143.00
16:32:40:813 -> 3098.00
16:32:40:813 -> 3137.00
16:32:40:813 -> 3152.00
16:32:40:813 -> 3126.00
16:32:40:828 -> 3128.00
16:32:40:828 -> 3109.00
16:32:40:828 -> 3044.00
16:32:40:828 -> 3050.00
16:32:40:828 -> 3024.00
16:32:40:828 -> 3017.00
16:32:40:828 -> 3046.00
16:32:40:828 -> 3069.00
16:32:40:828 -> 3103.00
16:32:40:828 -> 3099.00
16:32:40:828 -> 3097.00
16:32:40:828 -> 3090.00
16:32:40:828 -> 3091.00
16:32:40:835 -> 3073.00
16:32:40:835 -> 3089.00
16:32:40:835 -> 3078.00
16:32:40:835 -> 3111.00
16:32:40:835 -> 3125.00
16:32:40:835 -> 3061.00
16:32:40:843 -> 3057.00
16:32:40:843 -> 3121.00
16:32:40:843 -> 3102.00
16:32:40:843 -> 3094.00
16:32:40:843 -> 3071.00
16:32:40:843 -> 3087.00
16:32:40:843 -> 3071.00
16:32:40:850 -> 3091.00
16:32:40:850 -> 3098.00
16:32:40:850 -> 3094.00
16:32:40:850 -> 3073.00
16:32:40:850 -> 3097.00
16:32:40:852 -> 3124.00
16:32:40:852 -> 3128.00
16:32:40:853 -> 3123.00
16:32:40:854 -> 3103.00
16:32:40:856 -> 3106.00
16:32:40:856 -> 3118.00
16:32:40:858 -> 3092.00
16:32:40:858 -> 3038.00
16:32:40:860 -> 3071.00
16:32:40:861 -> 3092.00
16:32:40:862 -> 3073.00
16:32:40:863 -> 3075.00
16:32:40:864 -> 3091.00
16:32:40:866 -> 3121.00
16:32:40:867 -> 3103.00
16:32:40:868 -> 3078.00
16:32:40:869 -> 3077.00
16:32:40:870 -> 3105.00
16:32:40:872 -> 3109.00
16:32:40:873 -> 3046.00
16:32:40:875 -> 3033.00
16:32:40:876 -> 3035.00
16:32:40:877 -> 3021.00
16:32:40:878 -> 3101.00
16:32:40:879 -> 3140.00
16:32:40:880 -> 3093.00
16:32:40:881 -> 3102.00
16:32:40:882 -> 3085.00
16:32:40:883 -> 3098.00
16:32:40:885 -> 3128.00
16:32:40:886 -> 3108.00
16:32:40:887 -> 3080.00
16:32:40:888 -> 3107.00
16:32:40:889 -> 3103.00
16:32:40:891 -> 3081.00
16:32:40:892 -> 3089.00
16:32:40:893 -> 3105.00
16:32:40:894 -> 3079.00
16:32:40:895 -> 3049.00
16:32:40:897 -> 3045.00
16:32:40:898 -> 3052.00
16:32:40:899 -> 3083.00
16:32:40:900 -> 3063.00
16:32:40:901 -> 3074.00
16:32:40:902 -> 3085.00
16:32:40:904 -> 3080.00
16:32:40:905 -> 3033.00
16:32:40:906 -> 3054.00
16:32:40:907 -> 3122.00
16:32:40:908 -> 3175.00
16:32:40:910 -> 3165.00
16:32:40:911 -> 3148.00
16:32:40:915 -> 3111.00
16:32:40:915 -> 3077.00
16:32:40:915 -> 3090.00
16:32:40:916 -> 3093.00
16:32:40:917 -> 3046.00
16:32:40:918 -> 2960.00
16:32:40:919 -> 3046.00
16:32:40:923 -> 3081.00
16:32:40:923 -> 3063.00
16:32:40:923 -> 2987.00
16:32:40:963 -> 3075.00
16:32:40:963 -> 3129.00
16:32:40:963 -> 3158.00
16:32:40:963 -> 3115.00
16:32:40:963 -> 3114.00
16:32:40:963 -> 3126.00
16:32:40:963 -> 3140.00
16:32:40:963 -> 3130.00
16:32:40:963 -> 3087.00
16:32:40:963 -> 3068.00
16:32:40:963 -> 3034.00
16:32:40:963 -> 2968.00
16:32:40:963 -> 3018.00
16:32:40:963 -> 3103.00
16:32:40:963 -> 3130.00
16:32:40:963 -> 3174.00
16:32:40:998 -> 3087.00
16:32:40:998 -> 3105.00
16:32:40:998 -> 3095.00
16:32:40:998 -> 3119.00
16:32:40:998 -> 3052.00
16:32:40:998 -> 3074.00
16:32:40:998 -> 3106.00
16:32:40:998 -> 3110.00
16:32:40:998 -> 3088.00
16:32:40:998 -> 3127.00
16:32:40:998 -> 3131.00
16:32:40:998 -> 3131.00
16:32:40:998 -> 3051.00
16:32:40:998 -> 3066.00
16:32:40:998 -> 3035.00
16:32:40:998 -> 3034.00
16:32:40:998 -> 3091.00
16:32:40:998 -> 3080.00
16:32:40:998 -> 3116.00
16:32:40:998 -> 3136.00
16:32:40:998 -> 3142.00
16:32:40:998 -> 3108.00
16:32:40:998 -> 3119.00
16:32:40:998 -> 3111.00
16:32:40:998 -> 3106.00
16:32:40:998 -> 3068.00
16:32:40:998 -> 3068.00
16:32:40:998 -> 3057.00
16:32:40:998 -> 3029.00
16:32:40:998 -> 3043.00
16:32:40:998 -> 3061.00
16:32:40:998 -> 3002.00
16:32:40:998 -> 3012.00
16:32:40:998 -> 3098.00
16:32:40:998 -> 3127.00
16:32:40:998 -> 3060.00
16:32:40:998 -> 3061.00
16:32:40:998 -> 3064.00
16:32:40:998 -> 3097.00
16:32:40:998 -> 3061.00
16:32:40:998 -> 3072.00
16:32:40:998 -> 3112.00
16:32:40:998 -> 3165.00
16:32:40:998 -> 3071.00
16:32:40:998 -> 3073.00
16:32:40:998 -> 3084.00
16:32:40:998 -> 3097.00
16:32:41:049 -> 3068.00
16:32:41:049 -> 3103.00
16:32:41:049 -> 3058.00
16:32:41:049 -> 3074.00
16:32:41:049 -> 3116.00
16:32:41:049 -> 3124.00
16:32:41:049 -> 3168.00
16:32:41:049 -> 3187.00
16:32:41:049 -> 3130.00
16:32:41:049 -> 3120.00
16:32:41:049 -> 3099.00
16:32:41:049 -> 3192.00
16:32:41:049 -> 3122.00
16:32:41:049 -> 3114.00
16:32:41:049 -> 3082.00
16:32:41:049 -> 3067.00
16:32:41:049 -> 3018.00
16:32:41:049 -> 3026.00
16:32:41:049 -> 3083.00
16:32:41:049 -> 3092.00
16:32:41:049 -> 3087.00
16:32:41:049 -> 3128.00
16:32:41:049 -> 3114.00
16:32:41:049 -> 3134.00
16:32:41:049 -> 3105.00
16:32:41:049 -> 3053.00
16:32:41:049 -> 3130.00
16:32:41:049 -> 3109.00
16:32:41:049 -> 3064.00
16:32:41:049 -> 3152.00
16:32:41:049 -> 3142.00
16:32:41:084 -> 3090.00
16:32:41:084 -> 3049.00
16:32:41:084 -> 3039.00
16:32:41:084 -> 3070.00
16:32:41:084 -> 3065.00
16:32:41:084 -> 3078.00
16:32:41:084 -> 3107.00
16:32:41:084 -> 3106.00
16:32:41:084 -> 3101.00
16:32:41:084 -> 3143.00
16:32:41:084 -> 3129.00
16:32:41:084 -> 2971.00
16:32:41:084 -> 2974.00
16:32:41:084 -> 3088.00
16:32:41:084 -> 3129.00
16:32:41:084 -> 3115.00
16:32:41:084 -> 3052.00
16:32:41:084 -> 3118.00
16:32:41:084 -> 3096.00
16:32:41:084 -> 3023.00
16:32:41:084 -> 3051.00
16:32:41:084 -> 3096.00
16:32:41:084 -> 3127.00
16:32:41:084 -> 3157.00
