13:38:29:480 -> 2242
13:38:29:480 -> 1930
13:38:29:480 -> 2223
13:38:29:480 -> 1933
13:38:29:490 -> 2217
13:38:29:525 -> 1930
13:38:29:530 -> 2211
13:38:29:530 -> 1925
13:38:29:530 -> 2222
13:38:29:540 -> 1943
13:38:29:563 -> 2217
13:38:29:582 -> 1933
13:38:29:582 -> 2212
13:38:29:582 -> 1945
13:38:29:590 -> 2218
13:38:29:600 -> 1967
13:38:29:610 -> 2214
13:38:29:620 -> 1936
13:38:29:630 -> 2213
13:38:29:641 -> 1959
13:38:29:659 -> 2202
13:38:29:666 -> 1930
13:38:29:685 -> 2192
13:38:29:685 -> 1961
13:38:29:699 -> 2197
13:38:29:701 -> 1962
13:38:29:712 -> 2187
13:38:29:721 -> 1969
13:38:29:731 -> 2181
13:38:29:741 -> 1966
13:38:29:751 -> 2192
13:38:29:762 -> 1980
13:38:29:771 -> 2172
13:38:29:781 -> 1983
13:38:29:791 -> 2171
13:38:29:801 -> 1998
13:38:29:811 -> 2158
13:38:29:821 -> 1979
13:38:29:831 -> 2159
13:38:29:841 -> 1995
13:38:29:851 -> 2158
13:38:29:861 -> 2001
13:38:29:871 -> 2153
13:38:29:882 -> 1998
13:38:29:891 -> 2149
13:38:29:916 -> 2017
13:38:29:918 -> 2143
13:38:29:922 -> 2008
13:38:29:932 -> 2150
13:38:29:942 -> 2022
13:38:29:952 -> 2147
13:38:29:962 -> 2033
13:38:29:972 -> 2121
13:38:29:982 -> 2020
13:38:29:992 -> 2120
13:38:30:002 -> 2020
13:38:30:012 -> 2115
13:38:30:022 -> 2023
13:38:30:032 -> 2117
13:38:30:042 -> 2022
13:38:30:052 -> 2114
13:38:30:062 -> 2045
13:38:30:072 -> 2121
13:38:30:082 -> 2044
13:38:30:093 -> 2122
13:38:30:103 -> 2045
13:38:30:116 -> 2117
13:38:30:123 -> 2056
13:38:30:135 -> 2134
13:38:30:144 -> 2047
13:38:30:153 -> 2115
13:38:30:163 -> 2062
13:38:30:173 -> 2105
13:38:30:183 -> 2049
13:38:30:193 -> 2103
13:38:30:203 -> 2057
13:38:30:213 -> 2102
13:38:30:223 -> 2056
13:38:30:233 -> 2082
13:38:30:243 -> 2075
13:38:30:253 -> 2081
13:38:30:263 -> 2069
13:38:30:273 -> 2091
13:38:30:283 -> 2076
13:38:30:293 -> 2081
13:38:30:303 -> 2072
13:38:30:313 -> 2080
13:38:30:323 -> 2072
13:38:30:333 -> 2072
13:38:30:347 -> 2071
13:38:30:354 -> 2065
13:38:30:364 -> 2079
13:38:30:374 -> 2073
13:38:30:384 -> 2079
13:38:30:394 -> 2079
13:38:30:404 -> 2089
13:38:30:414 -> 2072
13:38:30:438 -> 2086
13:38:30:440 -> 2078
13:38:30:444 -> 2095
13:38:30:454 -> 2064
13:38:30:464 -> 2106
13:38:30:474 -> 2056
13:38:30:484 -> 2090
13:38:30:494 -> 2069
13:38:30:504 -> 2102
13:38:30:514 -> 2068
13:38:30:524 -> 2104
13:38:30:534 -> 2058
13:38:30:544 -> 2096
13:38:30:564 -> 2044
13:38:30:564 -> 2126
13:38:30:575 -> 2017
13:38:30:588 -> 2171
13:38:30:602 -> 2022
13:38:30:618 -> 2155
13:38:30:618 -> 1992
13:38:30:629 -> 2168
13:38:30:635 -> 1975
13:38:30:645 -> 2157
13:38:30:655 -> 2011
13:38:30:665 -> 2128
13:38:30:675 -> 1938
13:38:30:685 -> 2145
13:38:30:695 -> 2037
13:38:30:706 -> 2108
13:38:30:716 -> 2018
13:38:30:727 -> 2103
13:38:30:735 -> 2061
13:38:30:745 -> 2072
13:38:30:755 -> 2080
13:38:30:765 -> 2043
13:38:30:775 -> 2120
13:38:30:789 -> 2092
13:38:30:795 -> 2097
13:38:30:805 -> 2052
13:38:30:816 -> 2067
13:38:30:826 -> 2088
13:38:30:836 -> 2110
13:38:30:846 -> 2120
13:38:30:856 -> 2057
13:38:30:872 -> 2105
13:38:30:876 -> 1994
13:38:30:888 -> 2082
13:38:30:899 -> 2101
13:38:30:926 -> 2106
13:38:30:926 -> 2089
13:38:30:926 -> 1796
13:38:30:999 -> 2068
13:38:30:999 -> 2064
13:38:30:999 -> 2129
13:38:30:999 -> 2207
13:38:31:028 -> 1971
13:38:31:028 -> 2232
13:38:31:028 -> 2048
13:38:31:028 -> 2731
13:38:31:028 -> 1912
13:38:31:028 -> 2116
13:38:31:038 -> 1998
13:38:31:050 -> 1796
13:38:31:057 -> 2649
13:38:31:067 -> 2305
13:38:31:077 -> 2517
13:38:31:087 -> 1817
13:38:31:097 -> 2104
13:38:31:107 -> 2229
13:38:31:117 -> 2542
13:38:31:128 -> 1272
13:38:31:137 -> 2727
13:38:31:147 -> 1992
13:38:31:157 -> 1313
13:38:31:167 -> 2620
13:38:31:177 -> 2367
13:38:31:187 -> 2570
13:38:31:197 -> 1671
13:38:31:207 -> 1848
13:38:31:220 -> 2277
13:38:31:229 -> 1966
13:38:31:237 -> 1433
13:38:31:247 -> 1778
13:38:31:258 -> 2144
13:38:31:272 -> 2108
13:38:31:293 -> 1821
13:38:31:293 -> 1568
13:38:31:298 -> 2121
13:38:31:308 -> 2284
13:38:31:319 -> 2502
13:38:31:328 -> 2144
13:38:31:338 -> 2148
13:38:31:348 -> 1604
13:38:31:358 -> 1700
13:38:31:368 -> 2060
13:38:31:378 -> 1590
13:38:31:388 -> 1659
13:38:31:398 -> 2025
13:38:31:408 -> 2141
13:38:31:420 -> 2052
13:38:31:429 -> 2503
13:38:31:438 -> 2106
13:38:31:448 -> 2215
13:38:31:461 -> 2788
13:38:31:471 -> 1278
13:38:31:479 -> 2467
13:38:31:489 -> 2025
13:38:31:516 -> 1938
13:38:31:520 -> 2119
13:38:31:522 -> 1998
13:38:31:529 -> 2507
13:38:31:540 -> 1317
13:38:31:549 -> 2225
13:38:31:559 -> 2432
13:38:31:570 -> 2458
13:38:31:579 -> 1958
13:38:31:589 -> 2848
13:38:31:599 -> 2015
13:38:31:609 -> 2227
13:38:31:619 -> 2328
13:38:31:629 -> 1982
13:38:31:639 -> 2706
13:38:31:649 -> 2183
13:38:31:660 -> 1920
13:38:31:670 -> 2494
13:38:31:679 -> 2070
13:38:31:698 -> 2391
13:38:31:699 -> 2178
13:38:31:710 -> 1446
13:38:31:720 -> 1642
13:38:31:730 -> 2345
13:38:31:740 -> 2192
13:38:31:750 -> 2114
13:38:31:760 -> 1856
13:38:31:771 -> 1942
13:38:31:780 -> 2077
13:38:31:790 -> 2123
13:38:31:800 -> 1860
13:38:31:811 -> 1891
13:38:31:820 -> 1703
13:38:31:830 -> 2389
13:38:31:840 -> 1557
13:38:31:850 -> 2178
13:38:31:860 -> 2065
13:38:31:871 -> 2150
13:38:31:881 -> 1764
13:38:31:890 -> 2225
13:38:31:907 -> 1839
13:38:31:910 -> 2082
13:38:31:921 -> 2197
13:38:31:931 -> 2259
13:38:31:941 -> 1963
13:38:31:951 -> 2103
13:38:31:961 -> 1868
13:38:31:971 -> 1945
13:38:31:981 -> 1935
13:38:31:991 -> 1955
13:38:32:001 -> 1682
13:38:32:011 -> 2181
13:38:32:047 -> 1832
13:38:32:050 -> 2281
13:38:32:050 -> 2056
13:38:32:051 -> 2273
13:38:32:061 -> 1832
13:38:32:071 -> 2251
13:38:32:082 -> 2045
13:38:32:091 -> 2181
13:38:32:101 -> 2017
13:38:32:111 -> 2096
13:38:32:121 -> 2013
13:38:32:131 -> 2149
13:38:32:141 -> 2022
13:38:32:152 -> 2136
13:38:32:162 -> 2038
13:38:32:177 -> 2106
13:38:32:182 -> 2013
13:38:32:192 -> 2157
13:38:32:202 -> 2059
13:38:32:212 -> 2140
13:38:32:222 -> 1970
13:38:32:232 -> 2094
13:38:32:242 -> 2071
13:38:32:252 -> 2121
13:38:32:262 -> 2039
13:38:32:272 -> 2124
13:38:32:282 -> 2031
13:38:32:294 -> 2105
13:38:32:323 -> 2115
13:38:32:323 -> 2063
13:38:32:337 -> 2109
13:38:32:337 -> 2089
13:38:32:351 -> 2048
13:38:32:363 -> 2094
13:38:32:363 -> 2059
13:38:32:387 -> 2122
13:38:32:397 -> 2064
13:38:32:397 -> 2090
13:38:32:403 -> 2086
13:38:32:413 -> 2111
13:38:32:423 -> 2081
13:38:32:433 -> 2077
13:38:32:443 -> 2077
13:38:32:453 -> 2099
13:38:32:463 -> 2076
13:38:32:473 -> 2082
13:38:32:483 -> 2076
13:38:32:498 -> 2104
13:38:32:506 -> 2060
13:38:32:513 -> 2053
13:38:32:523 -> 2087
13:38:32:534 -> 1986
13:38:32:543 -> 2083
13:38:32:573 -> 2078
13:38:32:574 -> 2103
13:38:32:574 -> 2044
13:38:32:583 -> 2093
13:38:32:594 -> 2060
13:38:32:605 -> 2088
13:38:32:615 -> 2073
13:38:32:625 -> 2093
13:38:32:634 -> 2104
13:38:32:644 -> 2038
13:38:32:654 -> 2070
13:38:32:664 -> 2086
13:38:32:674 -> 2067
13:38:32:684 -> 2095
13:38:32:694 -> 2054
13:38:32:704 -> 2104
13:38:32:714 -> 2042
13:38:32:724 -> 2085
13:38:32:734 -> 2059
13:38:32:744 -> 2131
13:38:32:754 -> 2030
13:38:32:764 -> 2142
13:38:32:780 -> 2001
13:38:32:784 -> 2160
13:38:32:794 -> 1995
13:38:32:805 -> 2166
13:38:32:814 -> 2004
13:38:32:825 -> 2165
13:38:32:834 -> 2014
13:38:32:845 -> 2153
13:38:32:855 -> 2017
13:38:32:865 -> 2141
13:38:32:875 -> 2045
13:38:32:885 -> 2123
13:38:32:895 -> 2041
13:38:32:905 -> 2107
13:38:32:915 -> 2052
13:38:32:925 -> 2099
13:38:32:935 -> 2072
13:38:32:945 -> 2081
13:38:32:955 -> 2090
13:38:32:965 -> 2079
13:38:32:975 -> 2086
13:38:32:985 -> 2098
13:38:32:995 -> 2084
13:38:33:010 -> 2085
13:38:33:016 -> 2085
13:38:33:029 -> 2077
13:38:33:036 -> 2066
13:38:33:046 -> 2059
13:38:33:058 -> 2087
13:38:33:072 -> 2050
13:38:33:102 -> 2088
13:38:33:104 -> 2062
13:38:33:104 -> 2081
13:38:33:108 -> 2094
13:38:33:120 -> 2064
13:38:33:126 -> 2093
13:38:33:136 -> 2031
13:38:33:146 -> 2107
13:38:33:156 -> 2063
13:38:33:166 -> 2120
13:38:33:176 -> 2040
13:38:33:186 -> 2108
13:38:33:196 -> 2015
13:38:33:206 -> 2166
13:38:33:216 -> 2002
13:38:33:226 -> 2089
13:38:33:236 -> 2042
13:38:33:246 -> 2092
13:38:33:256 -> 2015
13:38:33:274 -> 2114
13:38:33:277 -> 2045
13:38:33:287 -> 2128
13:38:33:297 -> 2052
13:38:33:307 -> 2073
13:38:33:317 -> 1931
13:38:33:327 -> 2102
13:38:33:338 -> 1966
13:38:33:347 -> 2145
13:38:33:357 -> 2005
13:38:33:367 -> 2148
13:38:33:377 -> 2030
13:38:33:387 -> 2075
13:38:33:397 -> 2042
13:38:33:407 -> 1942
13:38:33:417 -> 2081
13:38:33:427 -> 2126
13:38:33:437 -> 2035
13:38:33:447 -> 2189
13:38:33:457 -> 2041
13:38:33:467 -> 2136
13:38:33:477 -> 2028
13:38:33:493 -> 2143
13:38:33:500 -> 2035
13:38:33:507 -> 2235
13:38:33:518 -> 2035
13:38:33:528 -> 2053
13:38:33:539 -> 2011
13:38:33:548 -> 2125
13:38:33:558 -> 1972
13:38:33:568 -> 2182
13:38:33:578 -> 1947
13:38:33:588 -> 2216
13:38:33:598 -> 1936
13:38:33:626 -> 2246
13:38:33:627 -> 2022
13:38:33:628 -> 2177
13:38:33:638 -> 1966
13:38:33:648 -> 2192
13:38:33:658 -> 2038
13:38:33:668 -> 2114
13:38:33:679 -> 2004
13:38:33:701 -> 2202
13:38:33:704 -> 1979
13:38:33:708 -> 2226
13:38:33:719 -> 2021
13:38:33:753 -> 2300
13:38:33:753 -> 1990
13:38:33:753 -> 2193
13:38:33:785 -> 2033
13:38:33:785 -> 2181
13:38:33:785 -> 2071
13:38:33:789 -> 2216
13:38:33:799 -> 1964
13:38:33:829 -> 2223
13:38:33:829 -> 1819
13:38:33:832 -> 2107
13:38:33:839 -> 2005
13:38:33:850 -> 2160
13:38:33:859 -> 2010
13:38:33:870 -> 1762
13:38:33:879 -> 2157
13:38:33:889 -> 2072
13:38:33:899 -> 2090
13:38:33:909 -> 1859
13:38:33:919 -> 2206
13:38:33:930 -> 2221
13:38:33:939 -> 2116
13:38:33:950 -> 2213
13:38:33:960 -> 2019
13:38:33:970 -> 2273
13:38:33:985 -> 2104
13:38:33:990 -> 2418
13:38:34:000 -> 1782
13:38:34:010 -> 2091
13:38:34:023 -> 1819
13:38:34:030 -> 2112
13:38:34:040 -> 1644
13:38:34:050 -> 2579
13:38:34:060 -> 2052
13:38:34:070 -> 1977
13:38:34:080 -> 1763
13:38:34:090 -> 2147
13:38:34:100 -> 1914
13:38:34:110 -> 1879
13:38:34:120 -> 1943
13:38:34:175 -> 2397
13:38:34:179 -> 1736
13:38:34:179 -> 2096
13:38:34:179 -> 2463
13:38:34:179 -> 1314
13:38:34:180 -> 2306
13:38:34:191 -> 2223
13:38:34:201 -> 2132
13:38:34:211 -> 1769
13:38:34:221 -> 2345
13:38:34:231 -> 1928
13:38:34:241 -> 1988
13:38:34:252 -> 2230
13:38:34:261 -> 2075
13:38:34:271 -> 2056
13:38:34:281 -> 2093
13:38:34:291 -> 2166
13:38:34:301 -> 2160
13:38:34:311 -> 2573
13:38:34:328 -> 2074
13:38:34:331 -> 1918
13:38:34:341 -> 2185
13:38:34:351 -> 2472
13:38:34:364 -> 2143
13:38:34:371 -> 2286
13:38:34:381 -> 2131
13:38:34:391 -> 2066
13:38:34:401 -> 2247
13:38:34:411 -> 2127
13:38:34:421 -> 2055
13:38:34:432 -> 2009
13:38:34:442 -> 2003
13:38:34:452 -> 1997
13:38:34:462 -> 2110
13:38:34:472 -> 2066
13:38:34:482 -> 2209
13:38:34:492 -> 2162
13:38:34:502 -> 1993
13:38:34:513 -> 2147
13:38:34:522 -> 2276
13:38:34:533 -> 2215
13:38:34:544 -> 2055
13:38:34:552 -> 2198
13:38:34:562 -> 2242
13:38:34:572 -> 2297
13:38:34:582 -> 2006
13:38:34:592 -> 2104
13:38:34:603 -> 2088
13:38:34:613 -> 2182
13:38:34:622 -> 2192
13:38:34:632 -> 2118
13:38:34:642 -> 2110
13:38:34:653 -> 2040
13:38:34:663 -> 2136
13:38:34:692 -> 2003
13:38:34:694 -> 2141
13:38:34:694 -> 2013
13:38:34:704 -> 2030
13:38:34:713 -> 2034
13:38:34:723 -> 2104
13:38:34:733 -> 1990
13:38:34:743 -> 2127
13:38:34:761 -> 2126
13:38:34:763 -> 2126
13:38:34:774 -> 2104
13:38:34:783 -> 2093
13:38:34:793 -> 1923
13:38:34:803 -> 2111
13:38:34:813 -> 2078
13:38:34:823 -> 2094
13:38:34:833 -> 2022
13:38:34:844 -> 2087
13:38:34:854 -> 2089
13:38:34:864 -> 2087
13:38:34:873 -> 2058
13:38:34:884 -> 2103
13:38:34:894 -> 2078
13:38:34:904 -> 2085
13:38:34:914 -> 2075
13:38:34:925 -> 2107
13:38:34:934 -> 1986
13:38:34:944 -> 2118
13:38:34:954 -> 2067
13:38:34:964 -> 2099
13:38:34:974 -> 2074
13:38:34:984 -> 2113
13:38:34:994 -> 2047
13:38:35:004 -> 2138
13:38:35:014 -> 2032
13:38:35:024 -> 2159
13:38:35:034 -> 2012
13:38:35:044 -> 2153
13:38:35:061 -> 1997
13:38:35:067 -> 2170
13:38:35:074 -> 2009
13:38:35:085 -> 2153
13:38:35:096 -> 2006
13:38:35:105 -> 2133
13:38:35:115 -> 2023
13:38:35:125 -> 2108
13:38:35:135 -> 2048
13:38:35:145 -> 2114
13:38:35:155 -> 2050
13:38:35:165 -> 2106
13:38:35:175 -> 2072
13:38:35:185 -> 2101
13:38:35:219 -> 2066
13:38:35:220 -> 2091
13:38:35:220 -> 2086
13:38:35:225 -> 2089
13:38:35:235 -> 2075
13:38:35:246 -> 2081
13:38:35:255 -> 2082
13:38:35:265 -> 2092
13:38:35:275 -> 2069
13:38:35:285 -> 2082
13:38:35:295 -> 2065
13:38:35:306 -> 2072
13:38:35:316 -> 2094
13:38:35:326 -> 2073
13:38:35:339 -> 2089
13:38:35:346 -> 2078
13:38:35:356 -> 2077
13:38:35:366 -> 2097
13:38:35:376 -> 2052
13:38:35:386 -> 2116
13:38:35:396 -> 2038
13:38:35:406 -> 2113
13:38:35:416 -> 2041
13:38:35:426 -> 2131
13:38:35:436 -> 2047
13:38:35:446 -> 2103
13:38:35:456 -> 2044
13:38:35:466 -> 2110
13:38:35:476 -> 2045
13:38:35:486 -> 2114
13:38:35:496 -> 2049
13:38:35:506 -> 2119
13:38:35:516 -> 2045
13:38:35:528 -> 2106
13:38:35:537 -> 2047
13:38:35:547 -> 2109
13:38:35:557 -> 2042
13:38:35:567 -> 2112
13:38:35:577 -> 2032
13:38:35:587 -> 2083
13:38:35:597 -> 2013
13:38:35:607 -> 2133
13:38:35:632 -> 2009
13:38:35:645 -> 2134
13:38:35:645 -> 2005
13:38:35:651 -> 2136
13:38:35:681 -> 1986
13:38:35:681 -> 2161
13:38:35:681 -> 1997
13:38:35:687 -> 2165
13:38:35:697 -> 1978
13:38:35:743 -> 2181
13:38:35:743 -> 1969
13:38:35:744 -> 2184
13:38:35:744 -> 1981
13:38:35:748 -> 2211
13:38:35:757 -> 1977
13:38:35:768 -> 2183
13:38:35:778 -> 1974
13:38:35:800 -> 2221
13:38:35:801 -> 1909
13:38:35:809 -> 2196
13:38:35:818 -> 1988
13:38:35:828 -> 2148
13:38:35:838 -> 1982
13:38:35:848 -> 2200
13:38:35:858 -> 1997
13:38:35:868 -> 2172
13:38:35:878 -> 1953
13:38:35:888 -> 2170
13:38:35:898 -> 1975
13:38:35:909 -> 2242
13:38:35:918 -> 1976
13:38:35:928 -> 2220
13:38:35:938 -> 1964
13:38:35:948 -> 2229
13:38:35:959 -> 1937
13:38:35:968 -> 2289
13:38:35:978 -> 1926
13:38:35:989 -> 2235
13:38:35:999 -> 1891
13:38:36:009 -> 2200
13:38:36:020 -> 1899
13:38:36:029 -> 2250
13:38:36:046 -> 1960
13:38:36:052 -> 2236
13:38:36:059 -> 1957
13:38:36:069 -> 2266
13:38:36:079 -> 1957
13:38:36:089 -> 2258
13:38:36:099 -> 1906
13:38:36:109 -> 2246
13:38:36:119 -> 2020
13:38:36:129 -> 2162
13:38:36:139 -> 1947
13:38:36:149 -> 2212
13:38:36:159 -> 1963
13:38:36:171 -> 2178
13:38:36:179 -> 1893
13:38:36:189 -> 2184
13:38:36:200 -> 1950
13:38:36:210 -> 2256
13:38:36:220 -> 1990
13:38:36:230 -> 2042
13:38:36:283 -> 2082
13:38:36:297 -> 2315
13:38:36:297 -> 1723
13:38:36:297 -> 2240
13:38:36:297 -> 2225
13:38:36:297 -> 2255
13:38:36:300 -> 1701
13:38:36:310 -> 2139
13:38:36:321 -> 1964
13:38:36:330 -> 2058
13:38:36:340 -> 1972
13:38:36:350 -> 2045
13:38:36:361 -> 1809
13:38:36:370 -> 2459
13:38:36:380 -> 2234
13:38:36:390 -> 2309
13:38:36:400 -> 2239
13:38:36:410 -> 1976
13:38:36:421 -> 2122
13:38:36:431 -> 2195
13:38:36:441 -> 1624
13:38:36:451 -> 1910
13:38:36:461 -> 2049
13:38:36:471 -> 2106
13:38:36:481 -> 1833
13:38:36:493 -> 2457
13:38:36:501 -> 1724
13:38:36:511 -> 1620
13:38:36:521 -> 2098
13:38:36:537 -> 2287
13:38:36:541 -> 1998
13:38:36:553 -> 2517
13:38:36:561 -> 2066
13:38:36:571 -> 2338
13:38:36:582 -> 1433
13:38:36:591 -> 1370
13:38:36:601 -> 2055
13:38:36:611 -> 1792
13:38:36:621 -> 2114
13:38:36:631 -> 2590
13:38:36:641 -> 877
13:38:36:651 -> 2269
13:38:36:662 -> 2001
13:38:36:672 -> 2209
13:38:36:682 -> 1404
13:38:36:692 -> 2281
13:38:36:702 -> 2373
13:38:36:712 -> 2068
13:38:36:722 -> 1985
13:38:36:732 -> 2443
13:38:36:742 -> 1854
13:38:36:752 -> 2110
13:38:36:762 -> 2079
13:38:36:779 -> 2197
13:38:36:782 -> 2757
13:38:36:807 -> 2221
13:38:36:808 -> 2351
13:38:36:812 -> 2062
13:38:36:822 -> 2250
13:38:36:834 -> 1897
13:38:36:842 -> 2125
13:38:36:852 -> 2141
13:38:36:863 -> 1969
13:38:36:872 -> 2114
13:38:36:883 -> 2079
13:38:36:893 -> 2079
13:38:36:903 -> 1382
13:38:36:913 -> 1791
13:38:36:923 -> 2249
13:38:36:933 -> 1946
13:38:36:943 -> 2515
13:38:36:953 -> 2171
13:38:36:963 -> 1796
13:38:36:978 -> 2599
13:38:36:983 -> 2439
13:38:36:995 -> 2204
13:38:37:003 -> 2157
13:38:37:013 -> 2204
13:38:37:024 -> 2225
13:38:37:033 -> 2431
13:38:37:043 -> 2196
13:38:37:053 -> 2563
13:38:37:063 -> 2175
13:38:37:073 -> 2351
13:38:37:085 -> 2081
13:38:37:094 -> 2020
13:38:37:104 -> 2351
13:38:37:113 -> 1637
13:38:37:124 -> 2180
13:38:37:134 -> 2522
13:38:37:144 -> 2036
13:38:37:154 -> 2086
13:38:37:164 -> 2054
13:38:37:195 -> 1930
13:38:37:229 -> 1975
13:38:37:229 -> 1650
13:38:37:229 -> 2211
13:38:37:229 -> 1820
13:38:37:229 -> 2109
13:38:37:249 -> 1788
13:38:37:249 -> 1683
13:38:37:260 -> 1665
13:38:37:286 -> 2196
13:38:37:286 -> 2015
13:38:37:286 -> 2157
13:38:37:335 -> 2107
13:38:37:335 -> 2053
13:38:37:335 -> 2153
13:38:37:335 -> 2370
13:38:37:335 -> 2078
13:38:37:349 -> 2069
13:38:37:355 -> 1777
13:38:37:365 -> 2059
13:38:37:375 -> 2100
13:38:37:385 -> 2114
13:38:37:395 -> 2091
13:38:37:405 -> 2096
13:38:37:415 -> 1610
13:38:37:426 -> 2314
13:38:37:435 -> 2213
13:38:37:445 -> 2226
13:38:37:455 -> 1956
13:38:37:465 -> 1979
13:38:37:475 -> 1938
13:38:37:485 -> 2296
13:38:37:495 -> 2242
13:38:37:505 -> 1855
13:38:37:515 -> 2303
13:38:37:525 -> 1979
13:38:37:536 -> 2015
13:38:37:545 -> 2019
13:38:37:561 -> 2265
13:38:37:566 -> 1903
13:38:37:576 -> 2310
13:38:37:591 -> 1903
13:38:37:600 -> 2119
13:38:37:606 -> 2125
13:38:37:616 -> 2212
13:38:37:626 -> 2090
13:38:37:637 -> 2086
13:38:37:646 -> 1875
13:38:37:656 -> 2051
13:38:37:666 -> 2380
13:38:37:676 -> 1933
13:38:37:687 -> 2187
13:38:37:696 -> 1945
13:38:37:706 -> 2177
13:38:37:716 -> 2328
13:38:37:726 -> 1862
13:38:37:737 -> 2188
13:38:37:746 -> 2119
13:38:37:757 -> 1919
13:38:37:766 -> 2042
13:38:37:776 -> 1892
13:38:37:787 -> 2152
13:38:37:797 -> 1920
13:38:37:807 -> 2436
13:38:37:830 -> 2305
13:38:37:864 -> 2504
13:38:37:865 -> 1997
13:38:37:865 -> 2186
13:38:37:865 -> 2018
13:38:37:867 -> 2228
13:38:37:877 -> 2004
13:38:37:887 -> 1829
13:38:37:897 -> 2157
13:38:37:907 -> 2309
13:38:37:917 -> 1686
13:38:37:927 -> 2305
13:38:37:937 -> 2027
13:38:37:947 -> 2289
13:38:37:957 -> 2031
13:38:37:967 -> 2505
13:38:37:977 -> 1965
13:38:37:987 -> 1782
13:38:37:998 -> 1940
13:38:38:008 -> 2419
13:38:38:018 -> 1996
13:38:38:033 -> 2215
13:38:38:038 -> 2142
13:38:38:048 -> 2179
13:38:38:058 -> 2018
13:38:38:068 -> 2331
13:38:38:078 -> 1940
13:38:38:088 -> 2260
13:38:38:098 -> 2088
13:38:38:109 -> 2264
13:38:38:118 -> 1779
13:38:38:128 -> 2260
13:38:38:139 -> 1829
13:38:38:149 -> 2284
13:38:38:159 -> 1814
13:38:38:171 -> 2364
13:38:38:178 -> 1955
13:38:38:188 -> 2116
13:38:38:198 -> 2130
13:38:38:208 -> 2155
13:38:38:218 -> 1780
13:38:38:228 -> 2259
13:38:38:239 -> 2013
13:38:38:248 -> 2276
13:38:38:259 -> 1918
13:38:38:269 -> 2177
13:38:38:279 -> 1861
13:38:38:301 -> 2254
13:38:38:301 -> 1921
13:38:38:309 -> 2310
13:38:38:319 -> 1797
13:38:38:329 -> 2252
13:38:38:339 -> 1963
13:38:38:349 -> 2225
13:38:38:359 -> 1953
13:38:38:390 -> 2180
13:38:38:390 -> 1948
13:38:38:390 -> 2217
13:38:38:399 -> 1878
13:38:38:409 -> 2216
13:38:38:419 -> 1911
13:38:38:429 -> 2187
13:38:38:440 -> 2007
13:38:38:450 -> 2125
13:38:38:460 -> 1979
13:38:38:470 -> 2148
13:38:38:480 -> 1966
13:38:38:490 -> 2194
13:38:38:500 -> 1968
13:38:38:510 -> 2138
13:38:38:522 -> 2033
13:38:38:530 -> 2241
13:38:38:540 -> 1954
13:38:38:550 -> 2168
13:38:38:560 -> 1922
13:38:38:570 -> 2195
13:38:38:583 -> 1988
13:38:38:590 -> 2156
13:38:38:600 -> 1999
13:38:38:610 -> 2147
13:38:38:622 -> 1978
13:38:38:630 -> 2144
13:38:38:640 -> 1991
13:38:38:650 -> 2141
13:38:38:660 -> 1989
13:38:38:670 -> 2142
13:38:38:680 -> 2028
13:38:38:690 -> 2135
13:38:38:702 -> 2031
13:38:38:711 -> 2128
13:38:38:730 -> 2011
13:38:38:731 -> 2126
13:38:38:741 -> 2032
13:38:38:752 -> 2133
13:38:38:761 -> 2028
13:38:38:771 -> 2119
13:38:38:781 -> 2057
13:38:38:792 -> 2122
13:38:38:801 -> 2027
13:38:38:811 -> 2123
13:38:38:821 -> 2038
13:38:38:831 -> 2124
13:38:38:841 -> 2036
13:38:38:851 -> 2105
13:38:38:861 -> 2039
13:38:38:871 -> 2131
13:38:38:881 -> 2057
13:38:38:920 -> 2104
13:38:38:922 -> 2038
13:38:38:922 -> 2119
13:38:38:922 -> 2059
13:38:38:932 -> 2094
13:38:38:947 -> 2065
13:38:38:952 -> 2116
13:38:38:962 -> 2074
13:38:38:972 -> 2098
13:38:38:982 -> 2079
13:38:38:992 -> 2091
13:38:39:002 -> 2067
13:38:39:012 -> 2091
13:38:39:022 -> 2080
13:38:39:034 -> 2091
13:38:39:042 -> 2062
13:38:39:052 -> 2082
13:38:39:062 -> 2092
13:38:39:072 -> 2089
13:38:39:082 -> 2081
13:38:39:092 -> 2071
13:38:39:104 -> 2087
13:38:39:113 -> 2074
13:38:39:122 -> 2085
13:38:39:133 -> 2059
13:38:39:143 -> 2075
13:38:39:159 -> 2076
13:38:39:200 -> 2093
13:38:39:200 -> 2072
13:38:39:200 -> 2095
13:38:39:200 -> 2062
13:38:39:234 -> 2091
13:38:39:234 -> 2065
13:38:39:234 -> 2092
13:38:39:234 -> 2066
13:38:39:262 -> 2097
13:38:39:262 -> 2063
13:38:39:276 -> 2105
13:38:39:276 -> 2058
13:38:39:315 -> 2106
13:38:39:315 -> 2060
13:38:39:315 -> 2112
13:38:39:324 -> 2028
13:38:39:324 -> 2121
13:38:39:333 -> 2003
13:38:39:343 -> 2160
13:38:39:354 -> 1996
13:38:39:364 -> 2147
13:38:39:374 -> 2024
13:38:39:384 -> 2148
13:38:39:394 -> 1994
13:38:39:404 -> 2157
13:38:39:414 -> 1972
13:38:39:450 -> 2166
13:38:39:451 -> 2043
13:38:39:451 -> 2127
13:38:39:454 -> 1914
13:38:39:464 -> 2124
13:38:39:474 -> 2063
13:38:39:484 -> 2080
13:38:39:494 -> 2098
13:38:39:504 -> 2066
13:38:39:519 -> 2059
13:38:39:525 -> 2127
13:38:39:534 -> 2046
13:38:39:544 -> 2072
13:38:39:555 -> 2118
13:38:39:564 -> 2116
13:38:39:575 -> 2117
13:38:39:585 -> 2035
13:38:39:595 -> 2061
13:38:39:605 -> 2100
13:38:39:615 -> 2069
13:38:39:625 -> 2085
13:38:39:635 -> 2127
13:38:39:645 -> 2046
13:38:39:655 -> 2076
13:38:39:666 -> 2138
13:38:39:675 -> 1998
13:38:39:685 -> 2059
13:38:39:695 -> 2060
13:38:39:705 -> 2075
13:38:39:715 -> 1999
13:38:39:725 -> 2170
13:38:39:735 -> 2076
13:38:39:746 -> 2079
13:38:39:755 -> 2045
13:38:39:765 -> 2105
13:38:39:791 -> 2022
13:38:39:792 -> 2129
13:38:39:796 -> 2058
13:38:39:806 -> 2162
13:38:39:816 -> 2079
13:38:39:826 -> 2154
13:38:39:836 -> 2099
13:38:39:846 -> 2109
13:38:39:856 -> 2030
13:38:39:866 -> 2095
13:38:39:876 -> 2052
13:38:39:891 -> 2067
13:38:39:896 -> 2045
13:38:39:906 -> 2059
13:38:39:916 -> 2005
13:38:39:926 -> 2117
13:38:39:937 -> 2103
13:38:39:946 -> 2117
13:38:39:975 -> 2085
13:38:39:976 -> 2224
13:38:39:976 -> 2059
13:38:39:987 -> 2039
13:38:39:996 -> 1840
13:38:40:006 -> 1971
13:38:40:028 -> 2075
13:38:40:029 -> 2185
13:38:40:037 -> 2131
13:38:40:047 -> 1735
13:38:40:057 -> 2046
13:38:40:067 -> 2244
13:38:40:077 -> 1740
13:38:40:088 -> 2175
13:38:40:097 -> 1777
13:38:40:107 -> 2135
13:38:40:117 -> 1664
13:38:40:128 -> 2356
13:38:40:137 -> 1948
13:38:40:147 -> 2313
13:38:40:157 -> 2546
13:38:40:167 -> 2095
13:38:40:177 -> 1776
13:38:40:188 -> 2034
13:38:40:197 -> 2104
13:38:40:207 -> 2121
13:38:40:217 -> 2061
13:38:40:227 -> 2255
13:38:40:244 -> 2567
13:38:40:247 -> 2062
13:38:40:258 -> 2016
13:38:40:269 -> 2115
13:38:40:278 -> 2099
13:38:40:288 -> 2471
13:38:40:298 -> 2148
13:38:40:309 -> 2297
13:38:40:318 -> 2211
13:38:40:328 -> 2174
13:38:40:338 -> 1392
13:38:40:348 -> 2245
13:38:40:358 -> 2264
13:38:40:368 -> 2163
13:38:40:378 -> 1742
13:38:40:388 -> 2044
13:38:40:398 -> 2191
13:38:40:408 -> 2450
13:38:40:418 -> 1617
13:38:40:428 -> 1796
13:38:40:438 -> 2323
13:38:40:454 -> 2305
13:38:40:458 -> 2029
13:38:40:468 -> 2380
13:38:40:507 -> 1716
13:38:40:509 -> 2330
13:38:40:509 -> 2028
13:38:40:509 -> 2401
13:38:40:520 -> 2016
13:38:40:531 -> 2642
13:38:40:539 -> 1983
13:38:40:549 -> 2401
13:38:40:559 -> 1941
13:38:40:570 -> 2364
13:38:40:579 -> 1639
13:38:40:589 -> 2321
13:38:40:599 -> 1510
13:38:40:609 -> 2419
13:38:40:620 -> 1961
13:38:40:629 -> 2032
13:38:40:639 -> 2169
13:38:40:649 -> 2602
13:38:40:659 -> 1759
13:38:40:672 -> 2150
13:38:40:679 -> 2107
13:38:40:689 -> 2149
13:38:40:700 -> 1810
13:38:40:709 -> 2479
13:38:40:720 -> 2005
13:38:40:730 -> 2167
13:38:40:740 -> 1930
13:38:40:750 -> 1987
13:38:40:760 -> 2346
13:38:40:776 -> 2209
13:38:40:780 -> 2196
13:38:40:790 -> 2189
13:38:40:800 -> 1812
13:38:40:810 -> 1886
13:38:40:824 -> 1629
13:38:40:880 -> 2072
13:38:40:880 -> 1791
13:38:40:886 -> 1985
13:38:40:886 -> 1893
13:38:40:886 -> 2205
13:38:40:886 -> 1852
13:38:40:890 -> 2086
13:38:40:908 -> 1838
13:38:40:918 -> 2338
13:38:40:925 -> 1836
13:38:40:931 -> 1909
13:38:40:940 -> 1860
13:38:40:951 -> 2162
13:38:40:961 -> 1914
13:38:40:971 -> 2100
13:38:40:981 -> 1816
13:38:40:991 -> 2460
13:38:41:001 -> 2175
13:38:41:040 -> 2351
13:38:41:041 -> 1849
13:38:41:041 -> 2061
13:38:41:041 -> 2229
13:38:41:051 -> 2174
13:38:41:063 -> 1537
13:38:41:072 -> 2098
13:38:41:081 -> 1996
13:38:41:091 -> 1748
13:38:41:101 -> 2092
13:38:41:111 -> 2054
13:38:41:121 -> 2406
13:38:41:131 -> 2254
13:38:41:141 -> 1879
13:38:41:153 -> 1806
13:38:41:162 -> 2136
13:38:41:172 -> 2068
13:38:41:182 -> 2150
13:38:41:192 -> 2202
13:38:41:202 -> 2144
13:38:41:212 -> 1863
13:38:41:222 -> 2357
13:38:41:232 -> 2037
13:38:41:242 -> 2152
13:38:41:252 -> 1885
13:38:41:263 -> 2016
13:38:41:272 -> 2245
13:38:41:282 -> 2139
13:38:41:292 -> 2228
13:38:41:303 -> 1976
13:38:41:312 -> 1979
13:38:41:322 -> 1970
13:38:41:332 -> 2202
13:38:41:342 -> 1823
13:38:41:352 -> 2272
13:38:41:362 -> 2152
13:38:41:372 -> 2176
13:38:41:382 -> 2055
13:38:41:393 -> 2079
13:38:41:403 -> 2131
13:38:41:413 -> 2104
13:38:41:423 -> 2132
13:38:41:433 -> 2183
13:38:41:443 -> 2122
13:38:41:453 -> 2085
13:38:41:468 -> 2100
13:38:41:473 -> 2114
13:38:41:483 -> 2016
13:38:41:493 -> 2085
13:38:41:503 -> 2098
13:38:41:513 -> 2089
13:38:41:523 -> 2090
13:38:41:533 -> 2060
13:38:41:567 -> 2093
13:38:41:571 -> 2008
13:38:41:571 -> 2120
13:38:41:573 -> 1845
13:38:41:583 -> 2199
13:38:41:593 -> 1985
13:38:41:604 -> 2139
13:38:41:614 -> 2006
13:38:41:624 -> 2155
13:38:41:634 -> 2009
13:38:41:644 -> 2155
13:38:41:654 -> 2053
13:38:41:665 -> 2128
13:38:41:674 -> 1997
13:38:41:684 -> 2131
13:38:41:694 -> 2056
13:38:41:704 -> 2081
13:38:41:714 -> 2013
13:38:41:724 -> 2086
13:38:41:734 -> 2066
13:38:41:744 -> 2068
13:38:41:754 -> 2121
13:38:41:764 -> 2050
13:38:41:774 -> 2076
13:38:41:784 -> 2099
13:38:41:794 -> 2084
13:38:41:804 -> 2096
13:38:41:816 -> 2076
13:38:41:824 -> 2079
13:38:41:835 -> 1983
13:38:41:844 -> 2116
13:38:41:854 -> 2057
13:38:41:865 -> 2066
13:38:41:875 -> 2100
13:38:41:892 -> 2105
13:38:41:895 -> 2094
13:38:41:906 -> 2073
13:38:41:915 -> 2092
13:38:41:925 -> 2119
13:38:41:935 -> 2060
13:38:41:945 -> 2120
13:38:41:955 -> 2050
13:38:41:965 -> 2114
13:38:41:975 -> 2050
13:38:41:986 -> 2120
13:38:41:995 -> 2039
13:38:42:005 -> 2108
13:38:42:015 -> 2045
13:38:42:025 -> 2098
13:38:42:037 -> 2042
13:38:42:046 -> 2103
13:38:42:056 -> 2063
13:38:42:094 -> 2113
13:38:42:096 -> 2077
13:38:42:096 -> 2007
13:38:42:096 -> 2069
13:38:42:106 -> 2146
13:38:42:116 -> 2049
13:38:42:126 -> 2115
13:38:42:138 -> 2030
13:38:42:146 -> 2074
13:38:42:156 -> 2035
13:38:42:166 -> 2147
13:38:42:183 -> 1967
13:38:42:186 -> 2156
13:38:42:198 -> 1988
13:38:42:206 -> 2121
13:38:42:216 -> 2030
13:38:42:239 -> 2134
13:38:42:262 -> 1975
13:38:42:262 -> 2128
13:38:42:262 -> 1987
13:38:42:286 -> 2167
13:38:42:286 -> 1983
13:38:42:296 -> 2138
13:38:42:306 -> 1943
13:38:42:307 -> 2164
13:38:42:330 -> 1967
13:38:42:334 -> 2147
13:38:42:337 -> 1952
13:38:42:347 -> 2166
13:38:42:357 -> 1969
13:38:42:367 -> 2142
13:38:42:377 -> 2000
13:38:42:387 -> 2153
13:38:42:397 -> 1985
13:38:42:407 -> 2172
13:38:42:418 -> 1972
13:38:42:428 -> 2176
13:38:42:441 -> 1967
13:38:42:454 -> 2225
13:38:42:457 -> 1947
13:38:42:467 -> 2206
13:38:42:477 -> 1941
13:38:42:487 -> 2212
13:38:42:497 -> 1919
13:38:42:510 -> 2197
13:38:42:518 -> 1945
13:38:42:528 -> 2216
13:38:42:538 -> 1925
13:38:42:548 -> 2251
13:38:42:558 -> 1927
13:38:42:568 -> 2240
13:38:42:578 -> 1930
13:38:42:588 -> 2197
13:38:42:624 -> 1959
13:38:42:625 -> 2240
13:38:42:625 -> 1961
13:38:42:628 -> 2241
13:38:42:638 -> 1929
13:38:42:648 -> 2225
13:38:42:658 -> 1966
13:38:42:678 -> 2226
13:38:42:680 -> 1934
13:38:42:688 -> 2212
13:38:42:700 -> 1969
13:38:42:708 -> 2224
13:38:42:718 -> 1948
13:38:42:728 -> 2207
13:38:42:738 -> 1945
13:38:42:749 -> 2212
13:38:42:759 -> 1925
13:38:42:769 -> 2224
13:38:42:779 -> 1938
13:38:42:789 -> 2184
13:38:42:799 -> 1962
13:38:42:809 -> 2166
13:38:42:820 -> 1980
13:38:42:829 -> 2203
13:38:42:839 -> 1955
13:38:42:849 -> 2182
13:38:42:859 -> 1961
13:38:42:871 -> 2134
13:38:42:879 -> 2003
13:38:42:889 -> 2149
13:38:42:899 -> 2000
13:38:42:909 -> 2121
13:38:42:919 -> 1977
13:38:42:930 -> 2192
13:38:42:939 -> 2002
13:38:42:949 -> 2196
13:38:42:962 -> 1992
13:38:42:970 -> 2163
13:38:42:980 -> 1983
13:38:42:990 -> 2181
13:38:43:000 -> 2012
13:38:43:010 -> 2188
13:38:43:020 -> 1982
13:38:43:030 -> 2134
13:38:43:040 -> 2060
13:38:43:050 -> 2116
13:38:43:060 -> 2010
13:38:43:075 -> 2175
13:38:43:081 -> 2021
13:38:43:096 -> 2085
13:38:43:104 -> 2066
13:38:43:110 -> 2131
13:38:43:158 -> 2015
13:38:43:160 -> 2141
13:38:43:160 -> 2066
13:38:43:160 -> 2113
13:38:43:161 -> 2037
13:38:43:171 -> 2056
13:38:43:181 -> 2055
13:38:43:192 -> 2007
13:38:43:201 -> 2013
13:38:43:211 -> 2079
13:38:43:221 -> 1979
13:38:43:231 -> 2106
13:38:43:243 -> 2079
13:38:43:251 -> 2163
13:38:43:261 -> 2034
13:38:43:278 -> 2052
13:38:43:281 -> 2034
13:38:43:291 -> 2059
13:38:43:301 -> 2045
13:38:43:313 -> 2114
13:38:43:321 -> 2081
13:38:43:331 -> 2082
13:38:43:341 -> 2093
13:38:43:351 -> 2063
13:38:43:361 -> 2185
13:38:43:371 -> 2069
13:38:43:381 -> 2058
13:38:43:391 -> 2099
13:38:43:401 -> 2161
13:38:43:412 -> 1835
13:38:43:422 -> 2317
13:38:43:432 -> 1947
13:38:43:442 -> 2009
13:38:43:452 -> 1971
13:38:43:462 -> 2111
13:38:43:472 -> 2063
13:38:43:482 -> 1987
13:38:43:492 -> 1636
13:38:43:513 -> 2367
13:38:43:514 -> 2304
13:38:43:522 -> 2175
13:38:43:532 -> 1985
13:38:43:542 -> 1856
13:38:43:554 -> 1830
13:38:43:562 -> 2272
13:38:43:572 -> 1773
13:38:43:582 -> 2537
13:38:43:594 -> 2270
13:38:43:603 -> 2160
13:38:43:612 -> 2196
13:38:43:623 -> 2289
13:38:43:633 -> 1918
13:38:43:643 -> 2202
13:38:43:654 -> 2347
13:38:43:682 -> 2029
13:38:43:683 -> 2220
13:38:43:683 -> 2387
13:38:43:693 -> 2277
13:38:43:717 -> 1966
13:38:43:717 -> 2057
13:38:43:748 -> 2262
13:38:43:748 -> 2013
13:38:43:748 -> 2277
13:38:43:763 -> 2236
13:38:43:763 -> 2068
13:38:43:773 -> 1550
13:38:43:804 -> 2552
13:38:43:804 -> 1943
13:38:43:804 -> 2255
13:38:43:813 -> 2091
13:38:43:826 -> 2072
13:38:43:835 -> 2006
13:38:43:843 -> 2191
13:38:43:854 -> 1837
13:38:43:864 -> 2156
13:38:43:874 -> 2201
13:38:43:884 -> 2266
13:38:43:894 -> 2135
13:38:43:904 -> 2163
13:38:43:914 -> 2199
13:38:43:924 -> 2247
13:38:43:935 -> 1979
13:38:43:944 -> 1952
13:38:43:954 -> 2035
13:38:43:964 -> 1952
13:38:43:974 -> 2195
13:38:43:984 -> 2202
13:38:43:994 -> 1886
13:38:44:004 -> 1929
13:38:44:014 -> 2138
13:38:44:025 -> 1962
13:38:44:034 -> 1853
13:38:44:044 -> 1966
13:38:44:059 -> 2161
13:38:44:064 -> 2201
13:38:44:074 -> 2389
13:38:44:088 -> 2257
13:38:44:096 -> 2055
13:38:44:105 -> 1881
13:38:44:115 -> 1750
13:38:44:125 -> 2254
13:38:44:135 -> 2249
13:38:44:145 -> 1923
13:38:44:161 -> 2203
13:38:44:165 -> 2140
13:38:44:175 -> 2253
13:38:44:222 -> 2139
13:38:44:224 -> 2684
13:38:44:224 -> 2292
13:38:44:224 -> 2441
13:38:44:225 -> 2447
13:38:44:235 -> 2309
13:38:44:245 -> 2126
13:38:44:255 -> 2310
13:38:44:265 -> 2213
13:38:44:275 -> 2239
13:38:44:288 -> 2140
13:38:44:295 -> 2390
13:38:44:306 -> 2503
13:38:44:316 -> 1779
13:38:44:326 -> 2273
13:38:44:336 -> 2065
13:38:44:346 -> 2054
13:38:44:356 -> 2208
13:38:44:366 -> 2387
13:38:44:376 -> 1749
13:38:44:396 -> 1391
13:38:44:398 -> 1590
13:38:44:406 -> 2299
13:38:44:416 -> 1926
13:38:44:426 -> 2388
13:38:44:436 -> 2098
13:38:44:446 -> 2496
13:38:44:456 -> 1975
13:38:44:466 -> 2161
13:38:44:476 -> 1438
13:38:44:487 -> 2152
13:38:44:498 -> 1583
13:38:44:506 -> 2136
13:38:44:517 -> 1704
13:38:44:527 -> 1510
13:38:44:537 -> 2432
13:38:44:547 -> 2458
13:38:44:557 -> 1986
13:38:44:567 -> 2303
13:38:44:577 -> 2406
13:38:44:587 -> 2554
13:38:44:597 -> 1804
13:38:44:607 -> 2444
13:38:44:622 -> 2077
13:38:44:628 -> 2321
13:38:44:637 -> 1935
13:38:44:650 -> 2445
13:38:44:657 -> 1518
13:38:44:667 -> 1778
13:38:44:677 -> 2250
13:38:44:687 -> 2493
13:38:44:697 -> 2044
13:38:44:707 -> 2234
13:38:44:719 -> 1934
13:38:44:742 -> 2192
13:38:44:743 -> 1572
13:38:44:747 -> 2291
13:38:44:758 -> 1962
13:38:44:768 -> 2625
13:38:44:778 -> 1950
13:38:44:788 -> 2459
13:38:44:798 -> 1614
13:38:44:808 -> 2834
13:38:44:825 -> 1916
13:38:44:828 -> 2524
13:38:44:838 -> 2007
13:38:44:848 -> 2196
13:38:44:858 -> 1920
13:38:44:868 -> 2002
13:38:44:878 -> 2008
13:38:44:888 -> 2157
13:38:44:898 -> 1952
13:38:44:908 -> 2215
13:38:44:919 -> 1921
13:38:44:928 -> 2147
13:38:44:938 -> 2025
13:38:44:948 -> 2108
13:38:44:959 -> 1958
13:38:44:970 -> 2206
13:38:44:979 -> 2004
13:38:44:989 -> 2214
13:38:44:999 -> 1976
13:38:45:009 -> 2144
13:38:45:019 -> 1991
13:38:45:029 -> 2188
13:38:45:039 -> 1988
13:38:45:049 -> 2134
13:38:45:059 -> 1983
13:38:45:071 -> 2148
13:38:45:081 -> 2026
13:38:45:089 -> 2168
13:38:45:109 -> 1993
13:38:45:120 -> 2149
13:38:45:123 -> 2011
13:38:45:129 -> 2170
13:38:45:139 -> 1990
13:38:45:173 -> 2147
13:38:45:173 -> 1990
13:38:45:173 -> 2144
13:38:45:184 -> 2016
13:38:45:232 -> 2143
13:38:45:232 -> 2029
13:38:45:232 -> 2107
13:38:45:232 -> 1994
13:38:45:232 -> 2115
13:38:45:330 -> 2060
13:38:45:330 -> 2126
13:38:45:330 -> 2052
13:38:45:330 -> 2120
13:38:45:335 -> 2036
13:38:45:335 -> 2120
13:38:45:335 -> 2058
13:38:45:335 -> 2120
13:38:45:335 -> 2037
13:38:45:335 -> 2102
13:38:45:340 -> 2100
13:38:45:350 -> 2105
13:38:45:361 -> 2066
13:38:45:370 -> 2110
13:38:45:382 -> 2059
13:38:45:391 -> 2106
13:38:45:401 -> 2054
13:38:45:411 -> 2150
13:38:45:421 -> 2044
13:38:45:431 -> 2084
13:38:45:441 -> 2091
13:38:45:451 -> 2100
13:38:45:461 -> 2067
13:38:45:471 -> 2127
13:38:45:482 -> 2093
13:38:45:491 -> 2061
13:38:45:501 -> 2039
13:38:45:511 -> 2124
13:38:45:521 -> 2047
13:38:45:531 -> 2094
13:38:45:545 -> 2071
13:38:45:551 -> 2081
13:38:45:563 -> 2055
13:38:45:571 -> 2083
13:38:45:581 -> 2059
13:38:45:591 -> 2078
13:38:45:601 -> 2080
13:38:45:611 -> 2079
13:38:45:621 -> 2020
13:38:45:633 -> 2074
13:38:45:642 -> 2094
13:38:45:652 -> 2110
13:38:45:662 -> 2090
13:38:45:672 -> 2060
13:38:45:682 -> 2122
13:38:45:692 -> 2064
13:38:45:702 -> 2094
13:38:45:712 -> 2036
13:38:45:722 -> 2098
13:38:45:732 -> 2067
13:38:45:742 -> 2091
13:38:45:752 -> 2097
13:38:45:762 -> 2083
13:38:45:772 -> 2054
13:38:45:782 -> 2106
13:38:45:801 -> 2047
13:38:45:805 -> 2145
13:38:45:812 -> 2009
13:38:45:822 -> 2134
13:38:45:860 -> 2020
13:38:45:862 -> 2165
13:38:45:862 -> 1990
13:38:45:863 -> 2165
13:38:45:873 -> 1984
13:38:45:883 -> 2148
13:38:45:893 -> 1991
13:38:45:905 -> 2153
13:38:45:913 -> 2001
13:38:45:923 -> 2147
13:38:45:933 -> 2036
13:38:45:943 -> 2133
13:38:45:953 -> 2046
13:38:45:963 -> 2076
13:38:45:973 -> 2085
13:38:45:983 -> 2096
13:38:45:993 -> 2050
13:38:46:009 -> 2072
13:38:46:013 -> 2067
13:38:46:023 -> 2068
13:38:46:034 -> 2083
13:38:46:044 -> 2102
13:38:46:054 -> 2075
13:38:46:063 -> 2089
13:38:46:074 -> 2091
13:38:46:084 -> 2077
13:38:46:094 -> 2071
13:38:46:104 -> 2090
13:38:46:114 -> 2086
13:38:46:124 -> 2109
13:38:46:134 -> 2048
13:38:46:144 -> 2089
13:38:46:154 -> 2086
13:38:46:164 -> 2095
13:38:46:174 -> 2070
13:38:46:184 -> 2115
13:38:46:194 -> 2064
13:38:46:205 -> 2128
13:38:46:215 -> 2029
13:38:46:224 -> 2133
13:38:46:234 -> 2017
13:38:46:244 -> 2132
13:38:46:254 -> 2054
13:38:46:265 -> 2125
13:38:46:278 -> 2047
13:38:46:284 -> 2102
13:38:46:295 -> 2063
13:38:46:305 -> 2117
13:38:46:315 -> 2033
13:38:46:325 -> 2116
13:38:46:335 -> 2020
13:38:46:345 -> 2121
13:38:46:356 -> 2065
13:38:46:385 -> 2120
13:38:46:387 -> 2047
13:38:46:387 -> 2107
13:38:46:395 -> 2047
13:38:46:405 -> 2128
13:38:46:415 -> 2034
13:38:46:425 -> 2124
13:38:46:435 -> 1999
13:38:46:445 -> 2158
13:38:46:455 -> 1979
13:38:46:465 -> 2174
13:38:46:475 -> 1976
13:38:46:486 -> 2157
13:38:46:495 -> 1981
13:38:46:514 -> 2171
13:38:46:516 -> 1860
13:38:46:526 -> 2214
13:38:46:536 -> 2003
13:38:46:546 -> 2187
13:38:46:556 -> 1957
13:38:46:566 -> 2197
13:38:46:577 -> 1988
13:38:46:588 -> 2165
13:38:46:596 -> 1967
13:38:46:606 -> 2127
13:38:46:616 -> 2010
13:38:46:626 -> 2148
13:38:46:636 -> 1879
13:38:46:646 -> 2197
13:38:46:656 -> 1931
13:38:46:677 -> 2214
13:38:46:693 -> 1926
13:38:46:693 -> 2181
13:38:46:701 -> 1964
13:38:46:727 -> 2114
13:38:46:727 -> 2006
13:38:46:727 -> 2299
13:38:46:737 -> 1812
13:38:46:751 -> 2214
13:38:46:766 -> 2039
13:38:46:780 -> 2132
13:38:46:780 -> 1945
13:38:46:800 -> 2170
13:38:46:805 -> 2170
13:38:46:807 -> 2257
13:38:46:828 -> 2070
13:38:46:829 -> 2264
13:38:46:837 -> 1877
13:38:46:847 -> 2410
13:38:46:857 -> 1893
13:38:46:867 -> 2276
13:38:46:878 -> 1918
13:38:46:912 -> 2326
13:38:46:915 -> 1997
13:38:46:915 -> 2215
13:38:46:917 -> 1763
13:38:46:927 -> 2206
13:38:46:937 -> 1618
13:38:46:947 -> 2295
13:38:46:958 -> 1714
13:38:46:968 -> 2225
13:38:46:979 -> 2011
13:38:46:988 -> 2297
13:38:46:998 -> 1997
13:38:47:008 -> 2212
13:38:47:018 -> 2026
13:38:47:028 -> 2217
13:38:47:038 -> 1937
13:38:47:051 -> 2278
13:38:47:058 -> 2033
13:38:47:068 -> 2208
13:38:47:078 -> 1953
13:38:47:088 -> 2233
13:38:47:099 -> 2003
13:38:47:108 -> 2236
13:38:47:118 -> 1923
13:38:47:128 -> 2326
13:38:47:138 -> 1946
13:38:47:149 -> 1643
13:38:47:158 -> 1857
13:38:47:169 -> 2230
13:38:47:179 -> 2011
13:38:47:189 -> 1954
13:38:47:199 -> 2221
13:38:47:209 -> 2102
13:38:47:219 -> 1878
13:38:47:229 -> 2339
13:38:47:239 -> 2058
13:38:47:256 -> 2053
13:38:47:259 -> 2300
13:38:47:269 -> 2140
13:38:47:288 -> 1616
13:38:47:290 -> 2219
13:38:47:299 -> 1441
13:38:47:311 -> 2382
13:38:47:320 -> 1860
13:38:47:329 -> 1832
13:38:47:340 -> 1961
13:38:47:349 -> 2318
13:38:47:359 -> 2279
13:38:47:370 -> 1874
13:38:47:379 -> 2095
13:38:47:389 -> 2387
13:38:47:400 -> 1677
13:38:47:410 -> 2582
13:38:47:441 -> 1923
13:38:47:444 -> 2251
13:38:47:444 -> 1988
13:38:47:450 -> 2069
13:38:47:460 -> 2141
13:38:47:470 -> 2024
13:38:47:480 -> 2418
13:38:47:490 -> 2008
13:38:47:500 -> 2019
13:38:47:510 -> 1846
13:38:47:520 -> 2059
13:38:47:530 -> 1841
13:38:47:540 -> 2269
13:38:47:550 -> 2017
13:38:47:569 -> 2417
13:38:47:572 -> 1899
13:38:47:580 -> 2110
13:38:47:590 -> 2085
13:38:47:604 -> 1815
13:38:47:611 -> 2099
13:38:47:621 -> 2560
13:38:47:631 -> 2230
13:38:47:643 -> 1651
13:38:47:651 -> 2174
13:38:47:661 -> 1949
13:38:47:671 -> 2083
13:38:47:681 -> 1979
13:38:47:691 -> 1706
13:38:47:701 -> 2050
13:38:47:711 -> 1986
13:38:47:721 -> 1935
13:38:47:731 -> 1715
13:38:47:741 -> 2683
13:38:47:751 -> 2169
13:38:47:761 -> 2099
13:38:47:771 -> 2088
13:38:47:781 -> 2201
13:38:47:791 -> 1898
13:38:47:804 -> 2296
13:38:47:811 -> 1921
13:38:47:821 -> 2223
13:38:47:831 -> 2073
13:38:47:841 -> 1498
13:38:47:852 -> 2143
13:38:47:862 -> 2016
13:38:47:872 -> 2097
13:38:47:882 -> 1805
13:38:47:892 -> 1989
13:38:47:902 -> 2089
13:38:47:912 -> 2303
13:38:47:922 -> 2115
13:38:47:932 -> 2103
13:38:47:964 -> 1989
13:38:47:964 -> 2182
13:38:47:964 -> 2056
13:38:47:972 -> 2319
13:38:47:982 -> 2689
13:38:47:992 -> 1865
13:38:48:002 -> 2468
13:38:48:012 -> 2254
13:38:48:022 -> 2313
13:38:48:032 -> 1767
13:38:48:047 -> 2474
13:38:48:054 -> 2395
13:38:48:062 -> 2076
13:38:48:073 -> 1835
13:38:48:083 -> 1627
13:38:48:095 -> 2168
13:38:48:103 -> 2319
13:38:48:113 -> 2063
13:38:48:123 -> 2359
13:38:48:133 -> 1808
13:38:48:143 -> 2314
13:38:48:153 -> 2142
13:38:48:163 -> 2359
13:38:48:173 -> 1920
13:38:48:183 -> 2099
13:38:48:193 -> 1991
13:38:48:203 -> 2311
13:38:48:213 -> 1917
13:38:48:224 -> 2019
13:38:48:233 -> 2292
13:38:48:243 -> 2228
13:38:48:253 -> 2076
13:38:48:270 -> 1819
13:38:48:273 -> 2094
13:38:48:283 -> 2071
13:38:48:296 -> 2006
13:38:48:304 -> 2065
13:38:48:314 -> 2064
13:38:48:324 -> 2096
13:38:48:334 -> 2105
13:38:48:344 -> 2172
13:38:48:354 -> 2089
13:38:48:364 -> 1611
13:38:48:374 -> 2255
13:38:48:384 -> 2146
13:38:48:394 -> 2042
13:38:48:405 -> 2163
13:38:48:414 -> 1982
13:38:48:424 -> 2101
13:38:48:434 -> 2029
13:38:48:447 -> 2118
13:38:48:454 -> 2007
13:38:48:486 -> 2142
13:38:48:488 -> 2073
13:38:48:488 -> 2153
13:38:48:494 -> 2051
13:38:48:512 -> 2113
13:38:48:514 -> 2094
13:38:48:525 -> 2056
13:38:48:538 -> 2056
13:38:48:547 -> 2069
13:38:48:574 -> 2056
13:38:48:574 -> 2117
13:38:48:590 -> 2044
13:38:48:590 -> 2140
13:38:48:612 -> 2047
13:38:48:612 -> 2141
13:38:48:620 -> 2047
13:38:48:625 -> 2117
13:38:48:636 -> 1990
13:38:48:648 -> 2125
13:38:48:655 -> 2048
13:38:48:665 -> 2218
13:38:48:675 -> 2003
13:38:48:685 -> 2164
13:38:48:695 -> 1972
13:38:48:705 -> 2157
13:38:48:715 -> 1933
13:38:48:725 -> 2165
13:38:48:736 -> 2032
13:38:48:745 -> 2209
13:38:48:756 -> 1826
13:38:48:766 -> 2154
13:38:48:776 -> 1967
13:38:48:786 -> 2172
13:38:48:796 -> 2015
13:38:48:806 -> 2161
13:38:48:816 -> 1997
13:38:48:826 -> 2187
13:38:48:836 -> 1961
13:38:48:846 -> 2177
13:38:48:859 -> 2002
13:38:48:866 -> 2158
13:38:48:876 -> 1940
13:38:48:886 -> 2170
13:38:48:896 -> 2003
13:38:48:906 -> 2205
13:38:48:916 -> 1985
13:38:48:926 -> 2180
13:38:48:936 -> 1966
13:38:48:946 -> 2210
13:38:48:957 -> 1911
13:38:48:967 -> 2187
13:38:48:976 -> 1986
13:38:49:009 -> 2252
13:38:49:010 -> 1936
13:38:49:010 -> 2220
13:38:49:017 -> 1921
13:38:49:027 -> 2241
13:38:49:037 -> 1923
13:38:49:047 -> 2216
13:38:49:057 -> 1897
13:38:49:067 -> 2297
13:38:49:077 -> 1942
13:38:49:088 -> 2208
13:38:49:097 -> 1937
13:38:49:107 -> 2204
13:38:49:117 -> 1961
13:38:49:127 -> 2253
13:38:49:137 -> 1952
13:38:49:148 -> 2233
13:38:49:157 -> 1954
13:38:49:167 -> 2238
13:38:49:178 -> 1953
13:38:49:187 -> 2181
13:38:49:198 -> 1928
13:38:49:208 -> 2209
13:38:49:218 -> 1895
13:38:49:228 -> 2244
13:38:49:238 -> 1991
13:38:49:248 -> 2207
13:38:49:258 -> 1940
13:38:49:270 -> 2212
13:38:49:278 -> 1936
13:38:49:288 -> 2173
13:38:49:298 -> 1948
13:38:49:308 -> 2238
13:38:49:318 -> 1897
13:38:49:328 -> 2182
13:38:49:347 -> 1971
13:38:49:350 -> 2204
13:38:49:358 -> 1978
13:38:49:372 -> 2182
13:38:49:378 -> 1966
13:38:49:389 -> 2177
13:38:49:398 -> 1957
13:38:49:408 -> 2244
13:38:49:419 -> 1969
13:38:49:428 -> 2180
13:38:49:439 -> 1986
13:38:49:449 -> 2177
13:38:49:459 -> 1977
13:38:49:469 -> 2171
13:38:49:479 -> 1956
13:38:49:489 -> 2158
13:38:49:499 -> 2000
13:38:49:538 -> 2085
13:38:49:538 -> 2011
13:38:49:538 -> 2179
13:38:49:539 -> 1999
13:38:49:549 -> 2164
13:38:49:559 -> 2009
13:38:49:571 -> 2118
13:38:49:579 -> 2003
13:38:49:603 -> 2120
13:38:49:606 -> 2002
13:38:49:609 -> 2151
13:38:49:620 -> 2034
13:38:49:629 -> 2141
13:38:49:639 -> 2030
13:38:49:650 -> 2101
13:38:49:659 -> 2064
13:38:49:670 -> 2143
13:38:49:680 -> 2028
13:38:49:690 -> 2131
13:38:49:700 -> 1937
13:38:49:710 -> 2129
13:38:49:720 -> 2066
13:38:49:730 -> 2121
13:38:49:740 -> 2055
13:38:49:750 -> 2108
13:38:49:760 -> 2028
13:38:49:771 -> 2124
13:38:49:780 -> 2006
13:38:49:790 -> 2136
13:38:49:800 -> 2037
13:38:49:810 -> 2111
13:38:49:820 -> 2032
13:38:49:830 -> 2098
13:38:49:840 -> 2044
13:38:49:864 -> 2084
13:38:49:866 -> 2055
13:38:49:871 -> 2085
13:38:49:880 -> 2087
13:38:49:891 -> 2094
13:38:49:901 -> 2066
13:38:49:911 -> 2096
13:38:49:921 -> 2083
13:38:49:931 -> 1998
13:38:49:941 -> 2020
13:38:49:951 -> 2155
13:38:49:961 -> 2049
13:38:49:971 -> 2117
13:38:49:981 -> 2054
13:38:50:012 -> 1960
13:38:50:021 -> 2047
13:38:50:021 -> 2111
13:38:50:021 -> 1991
13:38:50:031 -> 2015
13:38:50:087 -> 2146
13:38:50:087 -> 2047
13:38:50:093 -> 2147
13:38:50:093 -> 2085
13:38:50:093 -> 2024
13:38:50:093 -> 2086
13:38:50:113 -> 1915
13:38:50:113 -> 2056
13:38:50:121 -> 2107
13:38:50:144 -> 2080
13:38:50:146 -> 2081
13:38:50:152 -> 2140
13:38:50:162 -> 2146
13:38:50:172 -> 2104
13:38:50:182 -> 1994
13:38:50:192 -> 2068
13:38:50:202 -> 2260
13:38:50:212 -> 2189
13:38:50:222 -> 2119
13:38:50:232 -> 2052
13:38:50:242 -> 2053
13:38:50:254 -> 2092
13:38:50:262 -> 2196
13:38:50:272 -> 2078
13:38:50:283 -> 2207
13:38:50:292 -> 2072
13:38:50:302 -> 2006
13:38:50:312 -> 1955
13:38:50:322 -> 2072
13:38:50:333 -> 2000
13:38:50:342 -> 2251
13:38:50:353 -> 1933
13:38:50:363 -> 2179
13:38:50:373 -> 2106
13:38:50:393 -> 1976
13:38:50:394 -> 2078
13:38:50:403 -> 2089
13:38:50:413 -> 2130
13:38:50:423 -> 2007
13:38:50:433 -> 1930
13:38:50:443 -> 2372
13:38:50:453 -> 2182
13:38:50:463 -> 2021
13:38:50:473 -> 1992
13:38:50:483 -> 2557
13:38:50:493 -> 2080
13:38:50:503 -> 2021
13:38:50:513 -> 2072
13:38:50:523 -> 2320
13:38:50:533 -> 1550
13:38:50:543 -> 2250
13:38:50:555 -> 1919
13:38:50:563 -> 2366
13:38:50:573 -> 2288
13:38:50:583 -> 1394
13:38:50:622 -> 2190
13:38:50:623 -> 1834
13:38:50:623 -> 2333
13:38:50:624 -> 2265
13:38:50:634 -> 2235
13:38:50:644 -> 1663
13:38:50:654 -> 2054
13:38:50:664 -> 2357
13:38:50:674 -> 1837
13:38:50:684 -> 1793
13:38:50:694 -> 2260
13:38:50:704 -> 2317
13:38:50:714 -> 2181
13:38:50:724 -> 2064
13:38:50:734 -> 2046
13:38:50:744 -> 2572
13:38:50:755 -> 2128
13:38:50:764 -> 2028
13:38:50:774 -> 1836
13:38:50:784 -> 2307
13:38:50:794 -> 2077
13:38:50:804 -> 2165
13:38:50:815 -> 2109
13:38:50:828 -> 1844
13:38:50:838 -> 2228
13:38:50:845 -> 1926
13:38:50:855 -> 1838
13:38:50:865 -> 1985
13:38:50:875 -> 2425
13:38:50:885 -> 1788
13:38:50:895 -> 1964
13:38:50:906 -> 2062
13:38:50:915 -> 1562
13:38:50:925 -> 2052
13:38:50:935 -> 2160
13:38:50:945 -> 2405
13:38:50:955 -> 1898
13:38:50:965 -> 2229
13:38:50:975 -> 1882
13:38:50:985 -> 1732
13:38:50:995 -> 1628
13:38:51:005 -> 1920
13:38:51:015 -> 2357
13:38:51:033 -> 2373
13:38:51:036 -> 1704
13:38:51:046 -> 2117
13:38:51:057 -> 1672
13:38:51:066 -> 2335
13:38:51:076 -> 2022
13:38:51:086 -> 2204
13:38:51:096 -> 2002
13:38:51:106 -> 2127
13:38:51:116 -> 2009
13:38:51:156 -> 2435
13:38:51:159 -> 1837
13:38:51:159 -> 1830
13:38:51:159 -> 1980
13:38:51:167 -> 2306
13:38:51:176 -> 1371
13:38:51:186 -> 2336
13:38:51:197 -> 2139
13:38:51:210 -> 2216
13:38:51:216 -> 1538
13:38:51:227 -> 2397
13:38:51:236 -> 1693
13:38:51:247 -> 2503
13:38:51:256 -> 2231
13:38:51:267 -> 2026
13:38:51:277 -> 2284
13:38:51:287 -> 2025
13:38:51:297 -> 1921
13:38:51:307 -> 2478
13:38:51:317 -> 2231
13:38:51:328 -> 2229
13:38:51:345 -> 1607
13:38:51:348 -> 2272
13:38:51:357 -> 1776
13:38:51:367 -> 2927
13:38:51:377 -> 1925
13:38:51:387 -> 2084
13:38:51:397 -> 2128
13:38:51:407 -> 2386
13:38:51:418 -> 2070
13:38:51:427 -> 2118
13:38:51:437 -> 2126
13:38:51:452 -> 2336
13:38:51:457 -> 1918
13:38:51:490 -> 1958
13:38:51:490 -> 2092
13:38:51:490 -> 1698
13:38:51:523 -> 2013
13:38:51:523 -> 1887
13:38:51:523 -> 1977
13:38:51:529 -> 1868
13:38:51:538 -> 1911
13:38:51:563 -> 2252
13:38:51:563 -> 1696
13:38:51:570 -> 2043
13:38:51:578 -> 2243
13:38:51:589 -> 2270
13:38:51:598 -> 2150
13:38:51:608 -> 2207
13:38:51:618 -> 1839
13:38:51:628 -> 2139
13:38:51:639 -> 1975
13:38:51:648 -> 2132
13:38:51:687 -> 1928
13:38:51:688 -> 2121
13:38:51:688 -> 1961
13:38:51:688 -> 2096
13:38:51:698 -> 2057
13:38:51:708 -> 2091
13:38:51:719 -> 1934
13:38:51:729 -> 2106
13:38:51:739 -> 1954
13:38:51:749 -> 2220
13:38:51:759 -> 2016
13:38:51:769 -> 2192
13:38:51:779 -> 2029
13:38:51:790 -> 2051
13:38:51:801 -> 2018
13:38:51:815 -> 2145
13:38:51:827 -> 2003
13:38:51:829 -> 2123
13:38:51:839 -> 1959
13:38:51:850 -> 2164
13:38:51:859 -> 2064
13:38:51:874 -> 2131
13:38:51:884 -> 1975
13:38:51:889 -> 2178
13:38:51:901 -> 2004
13:38:51:909 -> 2148
13:38:51:919 -> 2056
13:38:51:929 -> 2131
13:38:51:939 -> 2044
13:38:51:951 -> 2096
13:38:51:960 -> 1946
13:38:51:970 -> 2189
13:38:51:980 -> 2053
13:38:51:990 -> 2145
13:38:52:000 -> 2039
13:38:52:010 -> 2135
13:38:52:020 -> 2098
13:38:52:030 -> 2090
13:38:52:040 -> 2034
13:38:52:050 -> 2095
13:38:52:060 -> 2024
13:38:52:070 -> 2122
13:38:52:081 -> 2047
13:38:52:090 -> 2093
13:38:52:100 -> 1995
13:38:52:113 -> 2183
13:38:52:122 -> 2022
13:38:52:130 -> 2118
13:38:52:140 -> 2059
13:38:52:151 -> 2081
13:38:52:160 -> 2083
13:38:52:171 -> 2083
13:38:52:180 -> 2069
13:38:52:213 -> 2106
13:38:52:217 -> 2112
13:38:52:217 -> 2024
13:38:52:226 -> 2091
13:38:52:231 -> 2102
13:38:52:241 -> 2082
13:38:52:251 -> 2095
13:38:52:261 -> 2064
13:38:52:271 -> 2081
13:38:52:281 -> 2025
13:38:52:291 -> 2086
13:38:52:301 -> 2098
13:38:52:312 -> 2073
13:38:52:321 -> 2048
13:38:52:331 -> 2069
13:38:52:357 -> 2103
13:38:52:359 -> 2055
13:38:52:361 -> 2086
13:38:52:371 -> 2076
13:38:52:381 -> 2095
13:38:52:391 -> 2059
13:38:52:401 -> 2092
13:38:52:412 -> 2062
13:38:52:422 -> 2094
13:38:52:432 -> 2023
13:38:52:442 -> 2079
13:38:52:452 -> 2003
13:38:52:462 -> 2094
13:38:52:472 -> 2042
13:38:52:482 -> 2104
13:38:52:492 -> 2104
13:38:52:502 -> 2123
13:38:52:512 -> 2040
13:38:52:522 -> 2173
13:38:52:532 -> 2030
13:38:52:542 -> 2149
13:38:52:552 -> 2007
13:38:52:562 -> 2164
13:38:52:572 -> 1979
13:38:52:582 -> 2165
13:38:52:592 -> 2015
13:38:52:602 -> 2173
13:38:52:626 -> 1996
13:38:52:629 -> 2178
13:38:52:633 -> 2004
13:38:52:643 -> 2136
13:38:52:654 -> 2011
13:38:52:663 -> 2121
13:38:52:673 -> 2010
13:38:52:683 -> 2088
13:38:52:693 -> 2052
13:38:52:703 -> 2102
13:38:52:713 -> 2071
13:38:52:737 -> 2074
13:38:52:737 -> 2072
13:38:52:743 -> 2049
13:38:52:754 -> 2118
13:38:52:763 -> 2041
13:38:52:773 -> 2097
13:38:52:783 -> 2037
13:38:52:793 -> 2082
13:38:52:803 -> 2105
13:38:52:813 -> 2099
13:38:52:824 -> 2099
13:38:52:833 -> 2082
13:38:52:843 -> 2084
13:38:52:854 -> 2083
13:38:52:864 -> 2065
13:38:52:881 -> 2059
13:38:52:884 -> 2088
13:38:52:894 -> 2072
13:38:52:904 -> 2105
13:38:52:914 -> 2066
13:38:52:924 -> 2089
13:38:52:934 -> 2055
13:38:52:944 -> 2107
13:38:52:960 -> 2031
13:38:52:970 -> 2122
13:38:52:986 -> 2048
13:38:52:986 -> 2123
13:38:53:025 -> 2013
13:38:53:025 -> 2136
13:38:53:025 -> 2062
13:38:53:025 -> 2163
13:38:53:034 -> 2017
13:38:53:049 -> 2117
13:38:53:060 -> 2076
13:38:53:064 -> 2046
13:38:53:075 -> 2082
13:38:53:085 -> 2091
13:38:53:097 -> 2053
13:38:53:106 -> 2112
13:38:53:115 -> 2028
13:38:53:125 -> 2104
13:38:53:135 -> 2062
13:38:53:145 -> 2119
13:38:53:155 -> 2034
13:38:53:165 -> 2146
13:38:53:180 -> 2007
13:38:53:191 -> 2145
13:38:53:195 -> 1959
13:38:53:205 -> 2168
13:38:53:215 -> 2007
13:38:53:225 -> 2194
13:38:53:236 -> 1994
13:38:53:265 -> 2179
13:38:53:267 -> 2019
13:38:53:267 -> 2137
13:38:53:276 -> 1976
13:38:53:286 -> 2200
13:38:53:295 -> 1991
13:38:53:305 -> 2157
13:38:53:315 -> 1966
13:38:53:326 -> 2163
13:38:53:336 -> 1997
13:38:53:346 -> 2169
13:38:53:356 -> 1962
13:38:53:366 -> 2174
13:38:53:376 -> 1980
13:38:53:386 -> 2173
13:38:53:396 -> 1984
13:38:53:406 -> 2154
13:38:53:416 -> 2006
13:38:53:426 -> 2196
13:38:53:445 -> 2017
13:38:53:448 -> 2158
13:38:53:456 -> 1926
13:38:53:466 -> 2198
13:38:53:476 -> 1984
13:38:53:486 -> 2207
13:38:53:496 -> 1988
13:38:53:506 -> 2282
13:38:53:518 -> 1938
13:38:53:527 -> 2231
13:38:53:537 -> 1898
13:38:53:547 -> 2214
13:38:53:557 -> 2029
13:38:53:567 -> 2228
13:38:53:577 -> 1919
13:38:53:587 -> 2214
13:38:53:597 -> 1869
13:38:53:608 -> 2292
13:38:53:617 -> 1937
13:38:53:627 -> 2285
13:38:53:637 -> 1959
13:38:53:647 -> 2160
13:38:53:657 -> 2028
13:38:53:667 -> 2154
13:38:53:678 -> 1694
13:38:53:687 -> 2189
13:38:53:697 -> 1996
13:38:53:707 -> 2114
13:38:53:717 -> 2422
13:38:53:727 -> 2584
13:38:53:737 -> 1818
13:38:53:748 -> 2256
13:38:53:757 -> 2138
13:38:53:790 -> 2351
13:38:53:790 -> 2283
13:38:53:790 -> 1977
13:38:53:798 -> 1954
13:38:53:808 -> 2136
13:38:53:818 -> 1689
13:38:53:828 -> 2170
13:38:53:838 -> 2431
13:38:53:848 -> 2110
13:38:53:858 -> 1926
13:38:53:868 -> 1436
13:38:53:878 -> 2130
13:38:53:890 -> 2571
13:38:53:898 -> 2508
13:38:53:908 -> 2293
13:38:53:921 -> 1625
13:38:53:928 -> 2341
13:38:53:938 -> 1779
13:38:53:948 -> 2194
13:38:53:958 -> 2037
13:38:53:969 -> 1556
13:38:53:978 -> 2634
13:38:53:988 -> 1834
13:38:53:998 -> 2322
13:38:54:009 -> 2776
13:38:54:019 -> 1724
13:38:54:029 -> 1618
13:38:54:039 -> 1610
13:38:54:049 -> 2541
13:38:54:059 -> 1739
13:38:54:069 -> 1144
13:38:54:079 -> 2207
13:38:54:089 -> 2104
13:38:54:099 -> 1773
13:38:54:109 -> 2704
13:38:54:133 -> 2808
13:38:54:141 -> 2119
13:38:54:141 -> 2270
13:38:54:149 -> 2534
13:38:54:159 -> 1590
13:38:54:169 -> 1947
13:38:54:183 -> 2644
13:38:54:191 -> 2375
13:38:54:199 -> 1145
13:38:54:211 -> 1929
13:38:54:220 -> 1358
13:38:54:230 -> 2119
13:38:54:240 -> 2308
13:38:54:250 -> 1922
13:38:54:260 -> 1952
13:38:54:270 -> 2006
13:38:54:280 -> 1850
13:38:54:322 -> 2367
13:38:54:324 -> 2251
13:38:54:324 -> 2112
13:38:54:324 -> 2425
13:38:54:330 -> 2211
13:38:54:348 -> 2373
13:38:54:350 -> 2552
13:38:54:360 -> 2139
13:38:54:370 -> 2363
13:38:54:381 -> 2317
13:38:54:420 -> 2460
13:38:54:420 -> 1398
13:38:54:420 -> 2133
13:38:54:452 -> 2136
13:38:54:452 -> 2159
13:38:54:452 -> 1368
13:38:54:452 -> 2510
13:38:54:472 -> 2051
13:38:54:472 -> 2219
13:38:54:481 -> 804
13:38:54:491 -> 1974
13:38:54:504 -> 2589
13:38:54:511 -> 2151
13:38:54:521 -> 2341
13:38:54:531 -> 1946
13:38:54:541 -> 1804
13:38:54:551 -> 1476
13:38:54:561 -> 2520
13:38:54:572 -> 2104
13:38:54:581 -> 1738
13:38:54:591 -> 1866
13:38:54:601 -> 2069
13:38:54:611 -> 2419
13:38:54:621 -> 1840
13:38:54:632 -> 2389
13:38:54:641 -> 1919
13:38:54:651 -> 2354
13:38:54:661 -> 1621
13:38:54:671 -> 1503
13:38:54:682 -> 1972
13:38:54:691 -> 1366
13:38:54:702 -> 2172
13:38:54:712 -> 351
13:38:54:722 -> 2348
13:38:54:732 -> 1330
13:38:54:742 -> 2240
13:38:54:754 -> 2443
13:38:54:762 -> 2232
13:38:54:772 -> 2084
13:38:54:782 -> 1882
13:38:54:792 -> 1655
13:38:54:802 -> 2050
13:38:54:812 -> 2035
13:38:54:856 -> 2648
13:38:54:858 -> 2174
13:38:54:858 -> 1800
13:38:54:858 -> 2368
13:38:54:862 -> 2191
13:38:54:875 -> 1729
13:38:54:884 -> 2196
13:38:54:897 -> 1749
13:38:54:902 -> 1946
13:38:54:913 -> 2008
13:38:54:923 -> 1753
13:38:54:932 -> 1093
13:38:54:943 -> 843
13:38:54:953 -> 2346
13:38:54:963 -> 2189
13:38:54:973 -> 2349
13:38:54:983 -> 2194
13:38:54:993 -> 1818
13:38:55:003 -> 2456
13:38:55:013 -> 2103
13:38:55:023 -> 2297
13:38:55:035 -> 2101
13:38:55:043 -> 2035
13:38:55:053 -> 2072
13:38:55:063 -> 2146
13:38:55:073 -> 2024
13:38:55:084 -> 2133
13:38:55:093 -> 2132
13:38:55:103 -> 2132
13:38:55:120 -> 2085
13:38:55:123 -> 2080
13:38:55:133 -> 2095
13:38:55:143 -> 2100
13:38:55:154 -> 2047
13:38:55:164 -> 2080
13:38:55:174 -> 2081
13:38:55:184 -> 2105
13:38:55:194 -> 2107
13:38:55:204 -> 2115
13:38:55:214 -> 2023
13:38:55:224 -> 2077
13:38:55:234 -> 2043
13:38:55:244 -> 2146
13:38:55:254 -> 2011
13:38:55:264 -> 2115
13:38:55:277 -> 2054
13:38:55:284 -> 2081
13:38:55:294 -> 2053
13:38:55:304 -> 2049
13:38:55:314 -> 2017
13:38:55:324 -> 2084
13:38:55:334 -> 2050
13:38:55:345 -> 2110
13:38:55:354 -> 2074
13:38:55:380 -> 2095
13:38:55:381 -> 2008
13:38:55:384 -> 2124
13:38:55:394 -> 2068
13:38:55:415 -> 2095
13:38:55:418 -> 2066
13:38:55:425 -> 2103
13:38:55:436 -> 2047
13:38:55:445 -> 2075
13:38:55:455 -> 2043
13:38:55:465 -> 2085
13:38:55:475 -> 2037
13:38:55:486 -> 2133
13:38:55:495 -> 2025
13:38:55:505 -> 2141
13:38:55:515 -> 2043
13:38:55:525 -> 2180
13:38:55:535 -> 2017
13:38:55:545 -> 2133
13:38:55:555 -> 1994
13:38:55:565 -> 2154
13:38:55:575 -> 1885
13:38:55:585 -> 2178
13:38:55:595 -> 1986
13:38:55:605 -> 2110
13:38:55:615 -> 2001
13:38:55:626 -> 2190
13:38:55:636 -> 1979
13:38:55:646 -> 2169
13:38:55:657 -> 1993
13:38:55:666 -> 2204
13:38:55:676 -> 1968
13:38:55:686 -> 2157
13:38:55:696 -> 2009
13:38:55:706 -> 2205
13:38:55:716 -> 1969
13:38:55:726 -> 2167
13:38:55:736 -> 1975
13:38:55:746 -> 2201
13:38:55:756 -> 1964
13:38:55:766 -> 2194
13:38:55:776 -> 1950
13:38:55:786 -> 2193
13:38:55:796 -> 1984
13:38:55:812 -> 2159
13:38:55:816 -> 1971
13:38:55:827 -> 2191
13:38:55:838 -> 1953
13:38:55:847 -> 2234
13:38:55:857 -> 1950
13:38:55:867 -> 2195
13:38:55:877 -> 1956
13:38:55:902 -> 2247
13:38:55:903 -> 1964
13:38:55:907 -> 2250
13:38:55:917 -> 1943
13:38:55:927 -> 2179
13:38:55:937 -> 1936
13:38:55:947 -> 2245
13:38:55:957 -> 1900
13:38:55:967 -> 2226
13:38:55:997 -> 1941
13:38:56:011 -> 2271
13:38:56:011 -> 1925
13:38:56:011 -> 2252
13:38:56:021 -> 1960
13:38:56:047 -> 2252
13:38:56:047 -> 1920
13:38:56:050 -> 2257
13:38:56:058 -> 1937
13:38:56:068 -> 2215
13:38:56:079 -> 1940
13:38:56:088 -> 2231
13:38:56:098 -> 1939
13:38:56:117 -> 2202
13:38:56:118 -> 1925
13:38:56:128 -> 2076
13:38:56:138 -> 1963
13:38:56:148 -> 2195
13:38:56:158 -> 1938
13:38:56:168 -> 2204
13:38:56:178 -> 1943
13:38:56:188 -> 2176
13:38:56:198 -> 1941
13:38:56:208 -> 2194
13:38:56:218 -> 1975
13:38:56:230 -> 2143
13:38:56:238 -> 1978
13:38:56:248 -> 2176
13:38:56:258 -> 1965
13:38:56:268 -> 2161
13:38:56:278 -> 1957
13:38:56:288 -> 2171
13:38:56:299 -> 1969
13:38:56:309 -> 2129
13:38:56:319 -> 1975
13:38:56:329 -> 2184
13:38:56:339 -> 1997
13:38:56:349 -> 2160
13:38:56:359 -> 2006
13:38:56:369 -> 2169
13:38:56:379 -> 2004
13:38:56:389 -> 2186
13:38:56:399 -> 1995
13:38:56:431 -> 2183
13:38:56:435 -> 1991
13:38:56:435 -> 2185
13:38:56:439 -> 2025
13:38:56:449 -> 2129
13:38:56:459 -> 2018
13:38:56:469 -> 2125
13:38:56:479 -> 2014
13:38:56:489 -> 2156
13:38:56:499 -> 2032
13:38:56:509 -> 2158
13:38:56:523 -> 2013
13:38:56:530 -> 2115
13:38:56:548 -> 2028
13:38:56:551 -> 2121
13:38:56:560 -> 2035
13:38:56:570 -> 2132
13:38:56:580 -> 2035
13:38:56:590 -> 2134
13:38:56:600 -> 2048
13:38:56:610 -> 2113
13:38:56:620 -> 2062
13:38:56:630 -> 2137
13:38:56:640 -> 2047
13:38:56:650 -> 2121
13:38:56:660 -> 2041
13:38:56:670 -> 2122
13:38:56:680 -> 2058
13:38:56:690 -> 2105
13:38:56:700 -> 2014
13:38:56:710 -> 2132
13:38:56:720 -> 2036
13:38:56:730 -> 2116
13:38:56:741 -> 2067
13:38:56:751 -> 2095
13:38:56:761 -> 2013
13:38:56:771 -> 2105
13:38:56:781 -> 2071
13:38:56:791 -> 2119
13:38:56:801 -> 2044
13:38:56:811 -> 2056
13:38:56:821 -> 2085
13:38:56:831 -> 2086
13:38:56:841 -> 2113
13:38:56:851 -> 2108
13:38:56:861 -> 2088
13:38:56:871 -> 2019
13:38:56:881 -> 2187
13:38:56:891 -> 2008
13:38:56:901 -> 2078
13:38:56:911 -> 2070
13:38:56:921 -> 2156
13:38:56:963 -> 2089
13:38:56:964 -> 2115
13:38:56:964 -> 2037
13:38:56:964 -> 2053
13:38:56:972 -> 2146
13:38:56:982 -> 2020
13:38:56:992 -> 2109
13:38:57:003 -> 2131
13:38:57:012 -> 1896
13:38:57:022 -> 2204
13:38:57:032 -> 2153
13:38:57:042 -> 2046
13:38:57:052 -> 1961
13:38:57:062 -> 2215
13:38:57:072 -> 2058
13:38:57:083 -> 2132
13:38:57:092 -> 2234
13:38:57:102 -> 2077
13:38:57:112 -> 2029
13:38:57:122 -> 2174
13:38:57:132 -> 1999
13:38:57:142 -> 2207
13:38:57:154 -> 1997
13:38:57:162 -> 2235
13:38:57:172 -> 1978
13:38:57:183 -> 2172
13:38:57:193 -> 2067
13:38:57:203 -> 2161
13:38:57:213 -> 1968
13:38:57:223 -> 2174
13:38:57:233 -> 2034
13:38:57:243 -> 1950
13:38:57:253 -> 2275
13:38:57:263 -> 2108
13:38:57:273 -> 2394
13:38:57:283 -> 2013
13:38:57:293 -> 2336
13:38:57:303 -> 2016
13:38:57:313 -> 2003
13:38:57:323 -> 2270
13:38:57:333 -> 2086
13:38:57:343 -> 2203
13:38:57:353 -> 2082
13:38:57:363 -> 2319
13:38:57:373 -> 2459
13:38:57:383 -> 2321
13:38:57:393 -> 1994
13:38:57:404 -> 1906
13:38:57:413 -> 1928
13:38:57:423 -> 2115
13:38:57:434 -> 2078
13:38:57:444 -> 2609
13:38:57:454 -> 1940
13:38:57:491 -> 2140
13:38:57:492 -> 1794
13:38:57:492 -> 1902
13:38:57:494 -> 2052
13:38:57:504 -> 2105
13:38:57:514 -> 2287
13:38:57:524 -> 2107
13:38:57:534 -> 2348
13:38:57:544 -> 2008
13:38:57:554 -> 1966
13:38:57:564 -> 1598
13:38:57:574 -> 1990
13:38:57:584 -> 2166
13:38:57:594 -> 1865
13:38:57:604 -> 1913
13:38:57:614 -> 2000
13:38:57:624 -> 2412
13:38:57:634 -> 2023
13:38:57:644 -> 2030
13:38:57:654 -> 2210
13:38:57:665 -> 2075
13:38:57:675 -> 1981
13:38:57:685 -> 2095
13:38:57:695 -> 2086
13:38:57:705 -> 2095
13:38:57:722 -> 1912
13:38:57:725 -> 2128
13:38:57:737 -> 1816
13:38:57:745 -> 2024
13:38:57:771 -> 2107
13:38:57:771 -> 2404
13:38:57:807 -> 2135
13:38:57:807 -> 2343
13:38:57:807 -> 2011
13:38:57:807 -> 2038
13:38:57:815 -> 2289
13:38:57:825 -> 2045
13:38:57:844 -> 2048
13:38:57:845 -> 2512
13:38:57:855 -> 2081
13:38:57:866 -> 2296
13:38:57:876 -> 1604
13:38:57:886 -> 2695
13:38:57:896 -> 2372
13:38:57:907 -> 2320
13:38:57:916 -> 2345
13:38:57:926 -> 2449
13:38:57:936 -> 1803
13:38:57:946 -> 1930
13:38:57:956 -> 2210
13:38:57:966 -> 2124
13:38:57:978 -> 2045
13:38:57:986 -> 2220
13:38:58:020 -> 1946
13:38:58:021 -> 2220
13:38:58:021 -> 2352
13:38:58:026 -> 2544
13:38:58:039 -> 1900
13:38:58:046 -> 2078
13:38:58:056 -> 2043
13:38:58:066 -> 2305
13:38:58:077 -> 1576
13:38:58:086 -> 2132
13:38:58:097 -> 1629
13:38:58:107 -> 2145
13:38:58:117 -> 2264
13:38:58:127 -> 2227
13:38:58:137 -> 1828
13:38:58:147 -> 2586
13:38:58:158 -> 2059
13:38:58:167 -> 2436
13:38:58:177 -> 1695
13:38:58:187 -> 2398
13:38:58:197 -> 1751
13:38:58:207 -> 2196
13:38:58:217 -> 1921
13:38:58:227 -> 2670
13:38:58:237 -> 2155
13:38:58:247 -> 2112
13:38:58:257 -> 1505
13:38:58:267 -> 2381
13:38:58:288 -> 2153
13:38:58:291 -> 2440
13:38:58:298 -> 1753
13:38:58:308 -> 1983
13:38:58:321 -> 1935
13:38:58:328 -> 2344
13:38:58:338 -> 2226
13:38:58:348 -> 1975
13:38:58:358 -> 2453
13:38:58:371 -> 2289
13:38:58:378 -> 1959
13:38:58:388 -> 2004
13:38:58:398 -> 2292
13:38:58:408 -> 2288
13:38:58:418 -> 2364
13:38:58:428 -> 2389
13:38:58:438 -> 2112
13:38:58:448 -> 2045
13:38:58:458 -> 2022
13:38:58:468 -> 1971
13:38:58:478 -> 2065
13:38:58:488 -> 2194
13:38:58:498 -> 2038
13:38:58:508 -> 1845
13:38:58:518 -> 2036
13:38:58:555 -> 2153
13:38:58:557 -> 2004
13:38:58:557 -> 2131
13:38:58:559 -> 2017
13:38:58:569 -> 2166
13:38:58:580 -> 1966
13:38:58:589 -> 2102
13:38:58:599 -> 2002
13:38:58:609 -> 2152
13:38:58:620 -> 1978
13:38:58:629 -> 2150
13:38:58:640 -> 2056
13:38:58:649 -> 2164
13:38:58:659 -> 2006
13:38:58:669 -> 2142
13:38:58:679 -> 2049
13:38:58:689 -> 2129
13:38:58:699 -> 2100
13:38:58:709 -> 2088
13:38:58:719 -> 1998
13:38:58:729 -> 2152
13:38:58:739 -> 2022
13:38:58:749 -> 2169
13:38:58:759 -> 2030
13:38:58:770 -> 2126
13:38:58:779 -> 2060
13:38:58:790 -> 2144
13:38:58:800 -> 1972
13:38:58:810 -> 2134
13:38:58:826 -> 2097
13:38:58:830 -> 2117
13:38:58:841 -> 2037
13:38:58:850 -> 2130
13:38:58:860 -> 2039
13:38:58:870 -> 2070
13:38:58:880 -> 2111
13:38:58:890 -> 2088
13:38:58:900 -> 2090
13:38:58:910 -> 2095
13:38:58:921 -> 2063
13:38:58:930 -> 2123
13:38:58:940 -> 2048
13:38:58:950 -> 2074
13:38:58:961 -> 2105
13:38:58:970 -> 2116
13:38:58:981 -> 2089
13:38:58:991 -> 2080
13:38:59:000 -> 2095
13:38:59:015 -> 2068
13:38:59:021 -> 2079
13:38:59:031 -> 2109
13:38:59:041 -> 2070
13:38:59:051 -> 2107
13:38:59:083 -> 2053
13:38:59:085 -> 2075
13:38:59:085 -> 2102
13:38:59:091 -> 2079
13:38:59:101 -> 2070
13:38:59:111 -> 2073
13:38:59:121 -> 2127
13:38:59:131 -> 2082
13:38:59:141 -> 2106
13:38:59:151 -> 2073
13:38:59:161 -> 2094
13:38:59:171 -> 1993
13:38:59:182 -> 2111
13:38:59:191 -> 2079
13:38:59:203 -> 2087
13:38:59:216 -> 2052
13:38:59:226 -> 2087
13:38:59:232 -> 2038
13:38:59:242 -> 2083
13:38:59:252 -> 2058
13:38:59:262 -> 2122
13:38:59:273 -> 2081
13:38:59:301 -> 2113
13:38:59:301 -> 2016
13:38:59:308 -> 2146
13:38:59:319 -> 1991
13:38:59:344 -> 2159
13:38:59:344 -> 1990
13:38:59:344 -> 2150
13:38:59:355 -> 2041
13:38:59:370 -> 2130
13:38:59:395 -> 2022
13:38:59:402 -> 2161
13:38:59:402 -> 2034
13:38:59:404 -> 2159
13:38:59:412 -> 2031
13:38:59:423 -> 2144
13:38:59:433 -> 2043
13:38:59:443 -> 2124
13:38:59:453 -> 1960
13:38:59:463 -> 2111
13:38:59:474 -> 2068
13:38:59:483 -> 2119
13:38:59:493 -> 2100
13:38:59:504 -> 2104
13:38:59:513 -> 2075
13:38:59:523 -> 2098
13:38:59:533 -> 2077
13:38:59:543 -> 2118
13:38:59:553 -> 1968
13:38:59:563 -> 2109
13:38:59:581 -> 2089
13:38:59:612 -> 2107
13:38:59:613 -> 2071
13:38:59:613 -> 2081
13:38:59:617 -> 2099
13:38:59:623 -> 2069
13:38:59:633 -> 2109
13:38:59:644 -> 2097
13:38:59:654 -> 2081
13:38:59:665 -> 2123
13:38:59:674 -> 2054
13:38:59:684 -> 2115
13:38:59:694 -> 2007
13:38:59:704 -> 2117
13:38:59:714 -> 2050
13:38:59:724 -> 2115
13:38:59:734 -> 2013
13:38:59:744 -> 2129
13:38:59:754 -> 2044
13:38:59:764 -> 2121
13:38:59:775 -> 2076
13:38:59:788 -> 2048
13:38:59:794 -> 2059
13:38:59:804 -> 2110
13:38:59:814 -> 2061
13:38:59:824 -> 2111
13:38:59:834 -> 2053
13:38:59:844 -> 2095
13:38:59:855 -> 2051
13:38:59:865 -> 2118
13:38:59:874 -> 2075
13:38:59:885 -> 2043
13:38:59:895 -> 2064
13:38:59:905 -> 2128
13:38:59:915 -> 2060
13:38:59:925 -> 2107
13:38:59:935 -> 2000
13:38:59:945 -> 2152
13:38:59:955 -> 1919
13:38:59:965 -> 2122
13:38:59:975 -> 1998
13:38:59:992 -> 2166
13:38:59:995 -> 2007
13:39:00:005 -> 2172
13:39:00:015 -> 1963
13:39:00:025 -> 2236
13:39:00:039 -> 1982
13:39:00:045 -> 2237
13:39:00:055 -> 1967
13:39:00:065 -> 2198
13:39:00:076 -> 1990
13:39:00:085 -> 2159
13:39:00:095 -> 1928
13:39:00:107 -> 2214
13:39:00:147 -> 1996
13:39:00:150 -> 2167
13:39:00:150 -> 1972
13:39:00:150 -> 2240
13:39:00:156 -> 1920
13:39:00:166 -> 2223
13:39:00:176 -> 1979
13:39:00:186 -> 2219
13:39:00:196 -> 2040
13:39:00:206 -> 2175
13:39:00:216 -> 1967
13:39:00:226 -> 2147
13:39:00:236 -> 1893
13:39:00:246 -> 2323
13:39:00:256 -> 1944
13:39:00:267 -> 2188
13:39:00:276 -> 1922
13:39:00:286 -> 2331
13:39:00:303 -> 1740
13:39:00:306 -> 2209
13:39:00:316 -> 1830
13:39:00:327 -> 2045
13:39:00:337 -> 2172
13:39:00:347 -> 2126
13:39:00:357 -> 1949
13:39:00:367 -> 2266
13:39:00:377 -> 2307
13:39:00:387 -> 1465
13:39:00:397 -> 2206
13:39:00:408 -> 2364
13:39:00:417 -> 2003
13:39:00:427 -> 2189
13:39:00:437 -> 1622
13:39:00:447 -> 2293
13:39:00:457 -> 2051
13:39:00:467 -> 2550
13:39:00:477 -> 1336
13:39:00:487 -> 2078
13:39:00:498 -> 2073
13:39:00:507 -> 2550
13:39:00:527 -> 2114
13:39:00:530 -> 2072
13:39:00:538 -> 1553
13:39:00:548 -> 2551
13:39:00:558 -> 1709
13:39:00:568 -> 1935
13:39:00:580 -> 1814
13:39:00:588 -> 2469
13:39:00:598 -> 1780
13:39:00:608 -> 1633
13:39:00:618 -> 2093
13:39:00:628 -> 2062
13:39:00:638 -> 2029
13:39:00:675 -> 1989
13:39:00:676 -> 1638
13:39:00:676 -> 2485
13:39:00:678 -> 2072
13:39:00:688 -> 1371
13:39:00:699 -> 2111
13:39:00:710 -> 2661
13:39:00:719 -> 2004
13:39:00:728 -> 2121
13:39:00:738 -> 1572
13:39:00:749 -> 2285
13:39:00:758 -> 1072
13:39:00:769 -> 2015
13:39:00:779 -> 2374
13:39:00:794 -> 2551
13:39:00:799 -> 2745
13:39:00:810 -> 2758
13:39:00:820 -> 1792
13:39:00:833 -> 2838
13:39:00:839 -> 2255
13:39:00:849 -> 2517
13:39:00:860 -> 2629
13:39:00:869 -> 1666
13:39:00:879 -> 812
13:39:00:889 -> 1846
13:39:00:899 -> 1968
13:39:00:909 -> 1787
13:39:00:919 -> 2031
13:39:00:929 -> 2268
13:39:00:939 -> 1779
13:39:00:949 -> 1153
13:39:00:959 -> 1363
13:39:00:970 -> 2615
13:39:00:979 -> 1976
13:39:00:990 -> 2114
13:39:01:021 -> 2543
13:39:01:025 -> 2359
13:39:01:025 -> 2092
13:39:01:042 -> 2959
13:39:01:042 -> 2215
13:39:01:068 -> 2266
13:39:01:068 -> 2186
13:39:01:075 -> 2498
13:39:01:080 -> 2111
13:39:01:090 -> 1929
13:39:01:110 -> 1568
13:39:01:110 -> 1072
13:39:01:120 -> 2241
13:39:01:130 -> 2060
13:39:01:140 -> 2192
13:39:01:150 -> 2694
13:39:01:160 -> 1826
13:39:01:170 -> 2311
13:39:01:210 -> 2272
13:39:01:211 -> 2784
13:39:01:211 -> 2002
13:39:01:211 -> 2208
13:39:01:221 -> 1954
13:39:01:231 -> 2579
13:39:01:242 -> 2249
13:39:01:251 -> 2240
13:39:01:261 -> 1572
13:39:01:271 -> 1789
13:39:01:281 -> 1617
13:39:01:291 -> 1196
13:39:01:301 -> 2859
13:39:01:311 -> 2434
13:39:01:321 -> 2296
13:39:01:331 -> 25
13:39:01:341 -> 2820
13:39:01:355 -> 2269
13:39:01:361 -> 2462
13:39:01:371 -> 1756
13:39:01:381 -> 2288
13:39:01:391 -> 2019
13:39:01:412 -> 1828
13:39:01:415 -> 1685
13:39:01:421 -> 2411
13:39:01:432 -> 1811
13:39:01:442 -> 1341
13:39:01:452 -> 2304
13:39:01:462 -> 2346
13:39:01:472 -> 2501
13:39:01:482 -> 2234
13:39:01:492 -> 2304
13:39:01:502 -> 2355
13:39:01:512 -> 1232
13:39:01:522 -> 1756
13:39:01:532 -> 1566
13:39:01:542 -> 2134
13:39:01:552 -> 2124
13:39:01:562 -> 2193
13:39:01:572 -> 2141
13:39:01:582 -> 1965
13:39:01:592 -> 2022
13:39:01:602 -> 1901
13:39:01:612 -> 2118
13:39:01:623 -> 2139
13:39:01:632 -> 2035
13:39:01:642 -> 2162
13:39:01:653 -> 2017
13:39:01:664 -> 2190
13:39:01:672 -> 2005
13:39:01:683 -> 2146
13:39:01:693 -> 2012
13:39:01:703 -> 2121
13:39:01:734 -> 2022
13:39:01:736 -> 2152
13:39:01:736 -> 2065
13:39:01:743 -> 2098
13:39:01:753 -> 2101
13:39:01:764 -> 2101
13:39:01:773 -> 2053
13:39:01:783 -> 2080
13:39:01:793 -> 2074
13:39:01:803 -> 2113
13:39:01:813 -> 2117
13:39:01:823 -> 2129
13:39:01:833 -> 2067
13:39:01:843 -> 2101
13:39:01:853 -> 2098
13:39:01:863 -> 2139
13:39:01:873 -> 2101
13:39:01:892 -> 2096
13:39:01:894 -> 2066
13:39:01:904 -> 2186
13:39:01:914 -> 2094
13:39:01:924 -> 2050
13:39:01:934 -> 2047
13:39:01:944 -> 2083
13:39:01:954 -> 2078
13:39:01:964 -> 2103
13:39:01:974 -> 2038
13:39:01:984 -> 2153
13:39:01:994 -> 1837
13:39:02:004 -> 2108
13:39:02:014 -> 1993
13:39:02:024 -> 2141
13:39:02:034 -> 2022
13:39:02:044 -> 2134
13:39:02:054 -> 2100
13:39:02:064 -> 2112
13:39:02:074 -> 2007
13:39:02:085 -> 2152
13:39:02:094 -> 2039
13:39:02:105 -> 2092
13:39:02:115 -> 2064
13:39:02:125 -> 2072
13:39:02:143 -> 2080
13:39:02:145 -> 2115
13:39:02:155 -> 2073
13:39:02:165 -> 2124
13:39:02:175 -> 2057
13:39:02:185 -> 2118
13:39:02:195 -> 2017
13:39:02:205 -> 2137
13:39:02:215 -> 1978
13:39:02:225 -> 2167
13:39:02:258 -> 2023
13:39:02:258 -> 2118
13:39:02:258 -> 2038
13:39:02:265 -> 2149
13:39:02:275 -> 1988
13:39:02:286 -> 2160
13:39:02:296 -> 1986
13:39:02:305 -> 2155
13:39:02:316 -> 1968
13:39:02:325 -> 2170
13:39:02:335 -> 1989
13:39:02:346 -> 2188
13:39:02:356 -> 1985
13:39:02:376 -> 2198
13:39:02:377 -> 2005
13:39:02:387 -> 2168
13:39:02:396 -> 1989
13:39:02:407 -> 2176
13:39:02:416 -> 2000
13:39:02:426 -> 2137
13:39:02:436 -> 1967
13:39:02:446 -> 2124
13:39:02:456 -> 2010
13:39:02:466 -> 2174
13:39:02:477 -> 1970
13:39:02:486 -> 2191
13:39:02:496 -> 1953
13:39:02:506 -> 2187
13:39:02:516 -> 1999
13:39:02:526 -> 2186
13:39:02:536 -> 1986
13:39:02:546 -> 2185
13:39:02:557 -> 1957
13:39:02:567 -> 2239
13:39:02:582 -> 1948
13:39:02:587 -> 2221
13:39:02:597 -> 1933
13:39:02:607 -> 2241
13:39:02:617 -> 1916
13:39:02:627 -> 2224
13:39:02:637 -> 1926
13:39:02:647 -> 2243
13:39:02:657 -> 1943
13:39:02:667 -> 2213
13:39:02:677 -> 1933
13:39:02:688 -> 2228
13:39:02:697 -> 1945
13:39:02:707 -> 2224
13:39:02:719 -> 1889
13:39:02:727 -> 2230
13:39:02:737 -> 1912
13:39:02:791 -> 2197
13:39:02:808 -> 1936
13:39:02:808 -> 2208
13:39:02:808 -> 1933
13:39:02:808 -> 2201
13:39:02:808 -> 1954
13:39:02:808 -> 2213
13:39:02:823 -> 1948
13:39:02:828 -> 2255
13:39:02:838 -> 1910
13:39:02:848 -> 2242
13:39:02:858 -> 1910
13:39:02:868 -> 2256
13:39:02:886 -> 1900
13:39:02:888 -> 2218
13:39:02:898 -> 1892
13:39:02:908 -> 2135
13:39:02:918 -> 1972
13:39:02:928 -> 2176
13:39:02:938 -> 2029
13:39:02:949 -> 2189
13:39:02:958 -> 1962
13:39:02:968 -> 2222
13:39:02:984 -> 2021
13:39:02:989 -> 2134
13:39:02:998 -> 2054
13:39:03:008 -> 2060
13:39:03:021 -> 2005
13:39:03:030 -> 1998
13:39:03:040 -> 1971
13:39:03:049 -> 2077
13:39:03:059 -> 2003
13:39:03:069 -> 1936
13:39:03:079 -> 2180
13:39:03:089 -> 2291
13:39:03:099 -> 1900
13:39:03:109 -> 2214
13:39:03:119 -> 1884
13:39:03:129 -> 2216
13:39:03:143 -> 2073
13:39:03:149 -> 1989
13:39:03:159 -> 2169
13:39:03:169 -> 2077
13:39:03:179 -> 2185
13:39:03:189 -> 2226
13:39:03:200 -> 1713
13:39:03:211 -> 2251
13:39:03:222 -> 2154
13:39:03:229 -> 1775
13:39:03:240 -> 2235
13:39:03:250 -> 2098
13:39:03:260 -> 2174
13:39:03:270 -> 2095
13:39:03:280 -> 1917
13:39:03:290 -> 2128
13:39:03:313 -> 2045
13:39:03:315 -> 2194
13:39:03:320 -> 2042
13:39:03:330 -> 2085
13:39:03:340 -> 1851
13:39:03:350 -> 2022
13:39:03:360 -> 2143
13:39:03:376 -> 2335
13:39:03:380 -> 1991
13:39:03:391 -> 2166
13:39:03:403 -> 1644
13:39:03:414 -> 2232
13:39:03:421 -> 1825
13:39:03:431 -> 2206
13:39:03:440 -> 2438
13:39:03:451 -> 1897
13:39:03:461 -> 2282
13:39:03:471 -> 2378
13:39:03:481 -> 1916
13:39:03:491 -> 2334
13:39:03:503 -> 1824
13:39:03:511 -> 1960
13:39:03:521 -> 1907
13:39:03:531 -> 2148
13:39:03:541 -> 2027
13:39:03:551 -> 2080
13:39:03:561 -> 2306
13:39:03:572 -> 2018
13:39:03:581 -> 1580
13:39:03:592 -> 1900
13:39:03:601 -> 2388
13:39:03:615 -> 2256
13:39:03:622 -> 1756
13:39:03:631 -> 2165
13:39:03:641 -> 2278
13:39:03:651 -> 1974
13:39:03:661 -> 1694
13:39:03:671 -> 2247
13:39:03:682 -> 2262
13:39:03:692 -> 2352
13:39:03:702 -> 1738
13:39:03:712 -> 1822
13:39:03:722 -> 2404
13:39:03:732 -> 1918
13:39:03:742 -> 2214
13:39:03:752 -> 2088
13:39:03:762 -> 2121
13:39:03:772 -> 2006
13:39:03:782 -> 2294
13:39:03:792 -> 2091
13:39:03:804 -> 2119
13:39:03:812 -> 2039
13:39:03:842 -> 1798
13:39:03:844 -> 2155
13:39:03:844 -> 1946
13:39:03:852 -> 2329
13:39:03:862 -> 2200
13:39:03:872 -> 2009
13:39:03:882 -> 2117
13:39:03:892 -> 1918
13:39:03:904 -> 2336
13:39:03:913 -> 1912
13:39:03:924 -> 2044
13:39:03:933 -> 2067
13:39:03:943 -> 2176
13:39:03:953 -> 1956
13:39:03:963 -> 2318
13:39:03:973 -> 2035
13:39:03:983 -> 2309
13:39:03:993 -> 2152
13:39:04:003 -> 2127
13:39:04:013 -> 2085
13:39:04:027 -> 2313
13:39:04:033 -> 1817
13:39:04:043 -> 2195
13:39:04:053 -> 2182
13:39:04:063 -> 1900
13:39:04:073 -> 2040
13:39:04:083 -> 2246
13:39:04:093 -> 2174
13:39:04:103 -> 2270
13:39:04:114 -> 2018
13:39:04:123 -> 2013
13:39:04:133 -> 2262
13:39:04:144 -> 1995
13:39:04:154 -> 2046
13:39:04:164 -> 2180
13:39:04:174 -> 1962
13:39:04:184 -> 2212
13:39:04:194 -> 2262
13:39:04:210 -> 2034
13:39:04:214 -> 1837
13:39:04:224 -> 2103
13:39:04:234 -> 2103
13:39:04:244 -> 2133
13:39:04:254 -> 1855
13:39:04:264 -> 2515
13:39:04:274 -> 2350
13:39:04:284 -> 2028
13:39:04:294 -> 2171
13:39:04:304 -> 2148
13:39:04:314 -> 2142
13:39:04:324 -> 2119
13:39:04:334 -> 1625
13:39:04:370 -> 2170
13:39:04:405 -> 1891
13:39:04:405 -> 2253
13:39:04:407 -> 1972
13:39:04:407 -> 1808
13:39:04:407 -> 1696
13:39:04:407 -> 2089
13:39:04:430 -> 1834
13:39:04:430 -> 2388
13:39:04:445 -> 1985
13:39:04:449 -> 2031
13:39:04:455 -> 1412
13:39:04:465 -> 2351
13:39:04:494 -> 2056
13:39:04:494 -> 1845
13:39:04:495 -> 2164
13:39:04:506 -> 2457
13:39:04:516 -> 1791
13:39:04:525 -> 2312
13:39:04:535 -> 1964
13:39:04:545 -> 1781
13:39:04:556 -> 2088
13:39:04:566 -> 2153
13:39:04:575 -> 2051
13:39:04:587 -> 2006
13:39:04:596 -> 2044
13:39:04:606 -> 2248
13:39:04:616 -> 1910
13:39:04:626 -> 2192
13:39:04:636 -> 2041
13:39:04:646 -> 2139
13:39:04:656 -> 1927
13:39:04:667 -> 2212
13:39:04:676 -> 2000
13:39:04:686 -> 2198
13:39:04:696 -> 1977
13:39:04:716 -> 2175
13:39:04:719 -> 1954
13:39:04:726 -> 2199
13:39:04:737 -> 2024
13:39:04:748 -> 2164
13:39:04:756 -> 1965
13:39:04:766 -> 2159
13:39:04:776 -> 1978
13:39:04:786 -> 2200
13:39:04:796 -> 1976
13:39:04:807 -> 2204
13:39:04:817 -> 2039
13:39:04:827 -> 2240
13:39:04:837 -> 2044
13:39:04:847 -> 2196
13:39:04:857 -> 1959
13:39:04:867 -> 2219
13:39:04:897 -> 1943
13:39:04:900 -> 2206
13:39:04:900 -> 1952
13:39:04:907 -> 2213
13:39:04:917 -> 1949
13:39:04:927 -> 2215
13:39:04:937 -> 1906
13:39:04:949 -> 2256
13:39:04:957 -> 1920
13:39:04:967 -> 2218
13:39:04:977 -> 1927
13:39:04:994 -> 2226
13:39:04:997 -> 1971
13:39:05:007 -> 2229
13:39:05:017 -> 1915
13:39:05:027 -> 2224
13:39:05:039 -> 1909
13:39:05:048 -> 2199
13:39:05:058 -> 1895
13:39:05:068 -> 2275
13:39:05:078 -> 1921
13:39:05:088 -> 2305
13:39:05:098 -> 1915
13:39:05:108 -> 2244
13:39:05:121 -> 2006
13:39:05:128 -> 2172
13:39:05:141 -> 1939
13:39:05:148 -> 2221
13:39:05:158 -> 1990
13:39:05:168 -> 2197
13:39:05:178 -> 1940
13:39:05:188 -> 2206
13:39:05:198 -> 1983
13:39:05:208 -> 2157
13:39:05:220 -> 1963
13:39:05:228 -> 2199
13:39:05:238 -> 1956
13:39:05:250 -> 2197
13:39:05:258 -> 1944
13:39:05:269 -> 2188
13:39:05:279 -> 1929
13:39:05:289 -> 2167
13:39:05:299 -> 1957
13:39:05:309 -> 2164
13:39:05:319 -> 1979
13:39:05:329 -> 2172
13:39:05:339 -> 1958
13:39:05:349 -> 2173
13:39:05:363 -> 1965
13:39:05:369 -> 2198
13:39:05:379 -> 1944
13:39:05:389 -> 2178
13:39:05:429 -> 1973
13:39:05:430 -> 2153
13:39:05:430 -> 1998
13:39:05:430 -> 2185
13:39:05:439 -> 2012
13:39:05:449 -> 2158
13:39:05:459 -> 2013
13:39:05:470 -> 2138
13:39:05:479 -> 2027
13:39:05:490 -> 2144
13:39:05:500 -> 2021
13:39:05:510 -> 2165
13:39:05:520 -> 1980
13:39:05:530 -> 2179
13:39:05:540 -> 1990
13:39:05:555 -> 2142
13:39:05:560 -> 2041
13:39:05:570 -> 2131
13:39:05:580 -> 2034
13:39:05:590 -> 2127
13:39:05:600 -> 2053
13:39:05:610 -> 2095
13:39:05:620 -> 2053
13:39:05:630 -> 2149
13:39:05:641 -> 2057
13:39:05:650 -> 2122
13:39:05:660 -> 2024
13:39:05:670 -> 2109
13:39:05:680 -> 2042
13:39:05:690 -> 2148
13:39:05:700 -> 2102
13:39:05:710 -> 2080
13:39:05:720 -> 2065
13:39:05:731 -> 2111
13:39:05:741 -> 2066
13:39:05:751 -> 2106
13:39:05:761 -> 2050
13:39:05:777 -> 2107
13:39:05:783 -> 2078
13:39:05:791 -> 2113
13:39:05:801 -> 2057
13:39:05:836 -> 2086
13:39:05:836 -> 2083
13:39:05:836 -> 2069
13:39:05:872 -> 2078
13:39:05:872 -> 2076
13:39:05:872 -> 2084
13:39:05:872 -> 2084
13:39:05:906 -> 2058
13:39:05:906 -> 2068
13:39:05:906 -> 2094
13:39:05:916 -> 2078
13:39:05:964 -> 2073
13:39:05:964 -> 2068
13:39:05:964 -> 2080
13:39:05:968 -> 2040
13:39:05:968 -> 2071
13:39:05:972 -> 2092
13:39:05:982 -> 2099
13:39:05:992 -> 2086
13:39:06:002 -> 2074
13:39:06:012 -> 2087
13:39:06:023 -> 2078
13:39:06:032 -> 2044
13:39:06:042 -> 2090
13:39:06:052 -> 2044
13:39:06:062 -> 2084
13:39:06:076 -> 2063
13:39:06:083 -> 2062
13:39:06:094 -> 2047
13:39:06:103 -> 2117
13:39:06:112 -> 2046
13:39:06:122 -> 2098
13:39:06:132 -> 2043
13:39:06:142 -> 2105
13:39:06:152 -> 2053
13:39:06:162 -> 2112
13:39:06:172 -> 2044
13:39:06:183 -> 2126
13:39:06:193 -> 1978
13:39:06:203 -> 2130
13:39:06:213 -> 2006
13:39:06:223 -> 2136
13:39:06:233 -> 1995
13:39:06:243 -> 2170
13:39:06:253 -> 1990
13:39:06:263 -> 2155
13:39:06:273 -> 2006
13:39:06:283 -> 2141
13:39:06:293 -> 2040
13:39:06:303 -> 2113
13:39:06:313 -> 2015
13:39:06:323 -> 2144
13:39:06:333 -> 2055
13:39:06:343 -> 2126
13:39:06:353 -> 2055
13:39:06:363 -> 2102
13:39:06:373 -> 2068
13:39:06:383 -> 2105
13:39:06:394 -> 2070
13:39:06:403 -> 2073
13:39:06:413 -> 2119
13:39:06:424 -> 2041
13:39:06:434 -> 2132
13:39:06:444 -> 2070
13:39:06:454 -> 2040
13:39:06:489 -> 2073
13:39:06:490 -> 2102
13:39:06:490 -> 2027
13:39:06:494 -> 1963
13:39:06:504 -> 2099
13:39:06:515 -> 2072
13:39:06:524 -> 2130
13:39:06:538 -> 2047
13:39:06:544 -> 2088
13:39:06:554 -> 2054
13:39:06:564 -> 2079
13:39:06:574 -> 2061
13:39:06:585 -> 2007
13:39:06:594 -> 2111
13:39:06:604 -> 2049
13:39:06:614 -> 2087
13:39:06:625 -> 2155
13:39:06:635 -> 2065
13:39:06:645 -> 2095
13:39:06:655 -> 2008
13:39:06:665 -> 2073
13:39:06:675 -> 2071
13:39:06:685 -> 2079
13:39:06:695 -> 2105
13:39:06:705 -> 1991
13:39:06:715 -> 2116
13:39:06:726 -> 2028
13:39:06:735 -> 2150
13:39:06:745 -> 2030
13:39:06:764 -> 2092
13:39:06:766 -> 2142
13:39:06:775 -> 2113
13:39:06:785 -> 2149
13:39:06:795 -> 1995
13:39:06:805 -> 2021
13:39:06:815 -> 2046
13:39:06:825 -> 2183
13:39:06:835 -> 2030
13:39:06:845 -> 2223
13:39:06:855 -> 2088
13:39:06:866 -> 1880
13:39:06:876 -> 2049
13:39:06:886 -> 2172
13:39:06:896 -> 1887
13:39:06:906 -> 2126
13:39:06:916 -> 2019
13:39:06:926 -> 2083
13:39:06:936 -> 2038
13:39:06:946 -> 2076
13:39:06:956 -> 2108
13:39:06:967 -> 2265
13:39:06:978 -> 2037
13:39:07:011 -> 2181
13:39:07:013 -> 2167
13:39:07:013 -> 1918
13:39:07:016 -> 1852
13:39:07:026 -> 2345
13:39:07:038 -> 2113
13:39:07:046 -> 2158
13:39:07:056 -> 2138
13:39:07:066 -> 2196
13:39:07:076 -> 1870
13:39:07:087 -> 2192
13:39:07:096 -> 2067
13:39:07:107 -> 2271
13:39:07:117 -> 2224
13:39:07:127 -> 2210
13:39:07:137 -> 1833
13:39:07:147 -> 2493
13:39:07:157 -> 1874
13:39:07:168 -> 2337
13:39:07:177 -> 1772
13:39:07:187 -> 2311
13:39:07:197 -> 2125
13:39:07:207 -> 2384
13:39:07:225 -> 1767
13:39:07:227 -> 2321
13:39:07:238 -> 1547
13:39:07:247 -> 1891
13:39:07:257 -> 1988
13:39:07:268 -> 2397
13:39:07:278 -> 1849
13:39:07:293 -> 2408
13:39:07:312 -> 1999
13:39:07:312 -> 2428
13:39:07:346 -> 1637
13:39:07:346 -> 2086
13:39:07:346 -> 1815
13:39:07:353 -> 2151
13:39:07:358 -> 2191
13:39:07:368 -> 2207
13:39:07:383 -> 2001
13:39:07:402 -> 2271
13:39:07:402 -> 1819
13:39:07:412 -> 2140
13:39:07:419 -> 1848
13:39:07:428 -> 1962
13:39:07:438 -> 2100
13:39:07:448 -> 1957
13:39:07:458 -> 1860
13:39:07:469 -> 2116
13:39:07:478 -> 2031
13:39:07:488 -> 1993
13:39:07:499 -> 1814
13:39:07:508 -> 2246
13:39:07:548 -> 1872
13:39:07:549 -> 1994
13:39:07:549 -> 1838
13:39:07:549 -> 2227
13:39:07:559 -> 2010
13:39:07:569 -> 2329
13:39:07:579 -> 2034
13:39:07:600 -> 1986
13:39:07:606 -> 1766
13:39:07:609 -> 1966
13:39:07:619 -> 1855
13:39:07:629 -> 2269
13:39:07:639 -> 2097
13:39:07:649 -> 2198
13:39:07:659 -> 2121
13:39:07:671 -> 2290
13:39:07:679 -> 1673
13:39:07:689 -> 2482
13:39:07:699 -> 2010
13:39:07:709 -> 2292
13:39:07:720 -> 1670
13:39:07:729 -> 1959
13:39:07:739 -> 1862
13:39:07:750 -> 2446
13:39:07:760 -> 1767
13:39:07:769 -> 1889
13:39:07:780 -> 1763
13:39:07:804 -> 2527
13:39:07:805 -> 2034
13:39:07:810 -> 2244
13:39:07:820 -> 2100
13:39:07:830 -> 2254
13:39:07:841 -> 2107
13:39:07:850 -> 2314
13:39:07:860 -> 2442
13:39:07:870 -> 2267
13:39:07:880 -> 2452
13:39:07:890 -> 1883
13:39:07:900 -> 1618
13:39:07:910 -> 1977
13:39:07:920 -> 1890
13:39:07:931 -> 2562
13:39:07:940 -> 1566
13:39:07:950 -> 2290
13:39:07:960 -> 2096
13:39:07:970 -> 1950
13:39:07:980 -> 2277
13:39:07:990 -> 2224
13:39:08:001 -> 1999
13:39:08:011 -> 1734
13:39:08:032 -> 2173
13:39:08:037 -> 1965
13:39:08:041 -> 2144
13:39:08:082 -> 2087
13:39:08:087 -> 2153
13:39:08:087 -> 2206
13:39:08:087 -> 1826
13:39:08:091 -> 2332
13:39:08:101 -> 2019
13:39:08:111 -> 2157
13:39:08:121 -> 2097
13:39:08:131 -> 2216
13:39:08:141 -> 2057
13:39:08:151 -> 1977
13:39:08:161 -> 2229
13:39:08:171 -> 2322
13:39:08:181 -> 2359
13:39:08:191 -> 2036
13:39:08:201 -> 1855
13:39:08:211 -> 1964
13:39:08:222 -> 2407
13:39:08:243 -> 1199
13:39:08:244 -> 2494
13:39:08:252 -> 2077
13:39:08:262 -> 1409
13:39:08:272 -> 2451
13:39:08:282 -> 1902
13:39:08:292 -> 2205
13:39:08:302 -> 2138
13:39:08:312 -> 2337
13:39:08:323 -> 1899
13:39:08:332 -> 2336
13:39:08:342 -> 2179
13:39:08:352 -> 1675
13:39:08:362 -> 1886
13:39:08:372 -> 2398
13:39:08:382 -> 2052
13:39:08:392 -> 1651
13:39:08:402 -> 2207
13:39:08:412 -> 2196
13:39:08:422 -> 1862
13:39:08:432 -> 2307
13:39:08:442 -> 1348
13:39:08:454 -> 2302
13:39:08:463 -> 2251
13:39:08:473 -> 2241
13:39:08:485 -> 2344
13:39:08:493 -> 2193
13:39:08:507 -> 2254
13:39:08:517 -> 1666
13:39:08:523 -> 2150
13:39:08:533 -> 2093
13:39:08:543 -> 2215
13:39:08:553 -> 1992
13:39:08:563 -> 2207
13:39:08:573 -> 2061
13:39:08:600 -> 2139
13:39:08:602 -> 1983
13:39:08:603 -> 2174
13:39:08:613 -> 1995
13:39:08:623 -> 2134
13:39:08:633 -> 1993
13:39:08:643 -> 2085
13:39:08:654 -> 2065
13:39:08:664 -> 2130
13:39:08:676 -> 2033
13:39:08:684 -> 2113
13:39:08:694 -> 2069
13:39:08:704 -> 2102
13:39:08:714 -> 2024
13:39:08:724 -> 2095
13:39:08:734 -> 2075
13:39:08:744 -> 2050
13:39:08:754 -> 2118
13:39:08:764 -> 2079
13:39:08:774 -> 2078
13:39:08:784 -> 2079
13:39:08:794 -> 2067
13:39:08:804 -> 2094
13:39:08:814 -> 2037
13:39:08:824 -> 2106
13:39:08:835 -> 1989
13:39:08:844 -> 2094
13:39:08:854 -> 2067
13:39:08:864 -> 2097
13:39:08:875 -> 2098
13:39:08:886 -> 2031
13:39:08:894 -> 2077
13:39:08:912 -> 1990
13:39:08:915 -> 2087
13:39:08:926 -> 2124
13:39:08:935 -> 2087
13:39:08:969 -> 2109
13:39:08:969 -> 2057
13:39:08:969 -> 2107
13:39:09:003 -> 2081
13:39:09:003 -> 1965
13:39:09:003 -> 2059
13:39:09:050 -> 2141
13:39:09:050 -> 2022
13:39:09:065 -> 2127
13:39:09:065 -> 2029
13:39:09:065 -> 2111
13:39:09:065 -> 2026
13:39:09:072 -> 2035
13:39:09:077 -> 2057
13:39:09:089 -> 2167
13:39:09:095 -> 2028
13:39:09:124 -> 2090
13:39:09:126 -> 2066
13:39:09:126 -> 2097
13:39:09:136 -> 2058
13:39:09:146 -> 2125
13:39:09:157 -> 2019
13:39:09:166 -> 2107
13:39:09:177 -> 2020
13:39:09:186 -> 2143
13:39:09:196 -> 2005
13:39:09:206 -> 2156
13:39:09:217 -> 2029
13:39:09:226 -> 2168
13:39:09:236 -> 2018
13:39:09:246 -> 2156
13:39:09:256 -> 2007
13:39:09:266 -> 2136
13:39:09:276 -> 1997
13:39:09:286 -> 2144
13:39:09:296 -> 2010
13:39:09:306 -> 2169
13:39:09:316 -> 1980
13:39:09:326 -> 2175
13:39:09:337 -> 2002
13:39:09:346 -> 2209
13:39:09:357 -> 1982
13:39:09:367 -> 2184
13:39:09:377 -> 1960
13:39:09:387 -> 2227
13:39:09:397 -> 2000
13:39:09:407 -> 2165
13:39:09:420 -> 1997
13:39:09:427 -> 2182
13:39:09:445 -> 2020
13:39:09:449 -> 2166
13:39:09:457 -> 1991
13:39:09:467 -> 2174
13:39:09:477 -> 2013
13:39:09:487 -> 2166
13:39:09:497 -> 1998
13:39:09:507 -> 2188
13:39:09:518 -> 1955
13:39:09:527 -> 2193
13:39:09:538 -> 1969
13:39:09:547 -> 2204
13:39:09:557 -> 1919
13:39:09:570 -> 2170
13:39:09:578 -> 1951
13:39:09:589 -> 2209
13:39:09:598 -> 1928
13:39:09:608 -> 2231
13:39:09:618 -> 1927
13:39:09:657 -> 2243
13:39:09:661 -> 1955
13:39:09:661 -> 2240
13:39:09:661 -> 1943
13:39:09:670 -> 2251
13:39:09:678 -> 1913
13:39:09:696 -> 2163
13:39:09:698 -> 1924
13:39:09:708 -> 2226
13:39:09:719 -> 1935
13:39:09:728 -> 2231
13:39:09:738 -> 1940
13:39:09:748 -> 2165
13:39:09:758 -> 1960
13:39:09:773 -> 2150
13:39:09:779 -> 1922
13:39:09:789 -> 2224
13:39:09:799 -> 1951
13:39:09:808 -> 2199
13:39:09:819 -> 1954
13:39:09:829 -> 2191
13:39:09:839 -> 1969
13:39:09:849 -> 2143
13:39:09:860 -> 1965
13:39:09:869 -> 2210
13:39:09:879 -> 1971
13:39:09:889 -> 2132
13:39:09:899 -> 1949
13:39:09:909 -> 2198
13:39:09:919 -> 1984
13:39:09:929 -> 2235
13:39:09:939 -> 1958
13:39:09:955 -> 2191
13:39:09:959 -> 1939
13:39:09:969 -> 2177
13:39:09:979 -> 1906
13:39:09:989 -> 2197
13:39:10:000 -> 1987
13:39:10:010 -> 2136
13:39:10:020 -> 1934
13:39:10:030 -> 2132
13:39:10:040 -> 1967
13:39:10:050 -> 2228
13:39:10:060 -> 2017
13:39:10:070 -> 2170
13:39:10:080 -> 2028
13:39:10:090 -> 2159
13:39:10:100 -> 1923
13:39:10:110 -> 2149
13:39:10:120 -> 2006
13:39:10:130 -> 2191
13:39:10:140 -> 1980
13:39:10:150 -> 2137
13:39:10:195 -> 2032
13:39:10:195 -> 2188
13:39:10:195 -> 2013
13:39:10:195 -> 2147
13:39:10:200 -> 1932
13:39:10:210 -> 2260
13:39:10:222 -> 2023
13:39:10:230 -> 2062
13:39:10:240 -> 2131
13:39:10:250 -> 2127
13:39:10:261 -> 1980
13:39:10:271 -> 2159
13:39:10:281 -> 2021
13:39:10:291 -> 2212
13:39:10:301 -> 1955
13:39:10:311 -> 2159
13:39:10:321 -> 1991
13:39:10:331 -> 2080
13:39:10:341 -> 2067
13:39:10:351 -> 1937
13:39:10:361 -> 2012
13:39:10:378 -> 2236
13:39:10:381 -> 2092
13:39:10:391 -> 2259
13:39:10:402 -> 1908
13:39:10:411 -> 2259
13:39:10:421 -> 1978
13:39:10:431 -> 2012
13:39:10:442 -> 2115
13:39:10:451 -> 2198
13:39:10:463 -> 1918
13:39:10:472 -> 2267
13:39:10:481 -> 2079
13:39:10:492 -> 1809
13:39:10:504 -> 2306
13:39:10:512 -> 1685
13:39:10:522 -> 2363
13:39:10:532 -> 2160
13:39:10:542 -> 2299
13:39:10:552 -> 1736
13:39:10:562 -> 1784
13:39:10:572 -> 2419
13:39:10:582 -> 1711
13:39:10:597 -> 1953
13:39:10:602 -> 2126
13:39:10:612 -> 2639
13:39:10:622 -> 1445
13:39:10:632 -> 2212
13:39:10:642 -> 1475
13:39:10:652 -> 2438
13:39:10:662 -> 1532
13:39:10:672 -> 1880
13:39:10:682 -> 1103
13:39:10:692 -> 2336
13:39:10:723 -> 2534
13:39:10:725 -> 1790
13:39:10:725 -> 1130
13:39:10:733 -> 2393
13:39:10:743 -> 2203
13:39:10:753 -> 2204
13:39:10:763 -> 2126
13:39:10:773 -> 2375
13:39:10:783 -> 2463
13:39:10:793 -> 1916
13:39:10:803 -> 2130
13:39:10:813 -> 2035
13:39:10:823 -> 1638
13:39:10:833 -> 1993
13:39:10:845 -> 1985
13:39:10:853 -> 1093
13:39:10:863 -> 2298
13:39:10:873 -> 1928
13:39:10:883 -> 1303
13:39:10:893 -> 1471
13:39:10:903 -> 2498
13:39:10:913 -> 2194
13:39:10:923 -> 1840
13:39:10:933 -> 2239
13:39:10:943 -> 2148
13:39:10:954 -> 2099
13:39:10:963 -> 1587
13:39:10:994 -> 2154
13:39:11:003 -> 1524
13:39:11:003 -> 2391
13:39:11:031 -> 2185
13:39:11:031 -> 2021
13:39:11:031 -> 2366
13:39:11:040 -> 2217
13:39:11:046 -> 2324
13:39:11:055 -> 2315
13:39:11:064 -> 2172
13:39:11:083 -> 2223
13:39:11:092 -> 2446
13:39:11:095 -> 1824
13:39:11:105 -> 1987
13:39:11:117 -> 1881
13:39:11:124 -> 1969
13:39:11:135 -> 2171
13:39:11:144 -> 2596
13:39:11:161 -> 1929
13:39:11:167 -> 1952
13:39:11:174 -> 2049
13:39:11:184 -> 2284
13:39:11:195 -> 1819
13:39:11:205 -> 2292
13:39:11:215 -> 2163
13:39:11:247 -> 2340
13:39:11:247 -> 1913
13:39:11:247 -> 2037
13:39:11:255 -> 1835
13:39:11:265 -> 2091
13:39:11:275 -> 1629
13:39:11:286 -> 2219
13:39:11:296 -> 1722
13:39:11:305 -> 2054
13:39:11:316 -> 1854
13:39:11:325 -> 1795
13:39:11:335 -> 2038
13:39:11:345 -> 2367
13:39:11:355 -> 2720
13:39:11:365 -> 2370
13:39:11:375 -> 2081
13:39:11:385 -> 2271
13:39:11:395 -> 1926
13:39:11:411 -> 2108
13:39:11:417 -> 2269
13:39:11:425 -> 2364
13:39:11:436 -> 2051
13:39:11:446 -> 2201
13:39:11:456 -> 1851
13:39:11:466 -> 2303
13:39:11:477 -> 2246
13:39:11:487 -> 2139
13:39:11:496 -> 2167
13:39:11:506 -> 2199
13:39:11:516 -> 1497
13:39:11:526 -> 2170
13:39:11:538 -> 1803
13:39:11:549 -> 2229
13:39:11:556 -> 2141
13:39:11:566 -> 1950
13:39:11:576 -> 2237
13:39:11:586 -> 1864
13:39:11:596 -> 2130
13:39:11:606 -> 2179
13:39:11:616 -> 1903
13:39:11:626 -> 2161
13:39:11:637 -> 1932
13:39:11:646 -> 2138
13:39:11:656 -> 1982
13:39:11:666 -> 2457
13:39:11:677 -> 1935
13:39:11:687 -> 1785
13:39:11:697 -> 2291
13:39:11:708 -> 1844
13:39:11:717 -> 2252
13:39:11:727 -> 2408
13:39:11:740 -> 1787
13:39:11:774 -> 2266
13:39:11:774 -> 2062
13:39:11:774 -> 2206
13:39:11:777 -> 2228
13:39:11:787 -> 2237
13:39:11:797 -> 1987
13:39:11:808 -> 1691
13:39:11:817 -> 2447
13:39:11:827 -> 2568
13:39:11:837 -> 1885
13:39:11:847 -> 2170
13:39:11:857 -> 2165
13:39:11:868 -> 1586
13:39:11:878 -> 1756
13:39:11:888 -> 2456
13:39:11:898 -> 1830
13:39:11:908 -> 2164
13:39:11:918 -> 1894
13:39:11:928 -> 2704
13:39:11:938 -> 2430
13:39:11:948 -> 1434
13:39:11:960 -> 2126
13:39:11:970 -> 2275
13:39:11:978 -> 1960
13:39:11:990 -> 1574
13:39:11:998 -> 1783
13:39:12:008 -> 2368
13:39:12:019 -> 1343
13:39:12:029 -> 2378
13:39:12:038 -> 1959
13:39:12:048 -> 2273
13:39:12:059 -> 1950
13:39:12:068 -> 2288
13:39:12:078 -> 1946
13:39:12:088 -> 2323
13:39:12:098 -> 1890
13:39:12:108 -> 2219
13:39:12:119 -> 1947
13:39:12:129 -> 2239
13:39:12:139 -> 1937
13:39:12:149 -> 2200
13:39:12:159 -> 1963
13:39:12:169 -> 2224
13:39:12:179 -> 1935
13:39:12:189 -> 2183
13:39:12:199 -> 1853
13:39:12:209 -> 2255
13:39:12:219 -> 1942
13:39:12:229 -> 2187
13:39:12:239 -> 1979
13:39:12:249 -> 2191
13:39:12:259 -> 1956
13:39:12:269 -> 2191
13:39:12:304 -> 1973
13:39:12:305 -> 2198
13:39:12:305 -> 2009
13:39:12:309 -> 2195
13:39:12:320 -> 1965
13:39:12:330 -> 2189
13:39:12:340 -> 1935
13:39:12:361 -> 2146
13:39:12:363 -> 1888
13:39:12:370 -> 2205
13:39:12:380 -> 1988
13:39:12:390 -> 2152
13:39:12:400 -> 2012
13:39:12:410 -> 2180
13:39:12:420 -> 1993
13:39:12:431 -> 2139
13:39:12:440 -> 2002
13:39:12:450 -> 2185
13:39:12:460 -> 1956
13:39:12:470 -> 2138
13:39:12:480 -> 1998
13:39:12:516 -> 2136
13:39:12:525 -> 1976
13:39:12:525 -> 2157
13:39:12:525 -> 2010
13:39:12:551 -> 2200
13:39:12:551 -> 1937
13:39:12:551 -> 2171
13:39:12:569 -> 2048
13:39:12:572 -> 2130
13:39:12:581 -> 2026
13:39:12:596 -> 2120
13:39:12:601 -> 2001
13:39:12:612 -> 2136
13:39:12:622 -> 2021
13:39:12:648 -> 2122
13:39:12:659 -> 2032
13:39:12:659 -> 2102
13:39:12:666 -> 2018
13:39:12:671 -> 2116
13:39:12:681 -> 2001
13:39:12:691 -> 2129
13:39:12:705 -> 2035
13:39:12:711 -> 2095
13:39:12:721 -> 2036
13:39:12:732 -> 2118
13:39:12:742 -> 2005
13:39:12:753 -> 2089
13:39:12:761 -> 1996
13:39:12:771 -> 2126
13:39:12:781 -> 2080
13:39:12:791 -> 2128
13:39:12:802 -> 2017
13:39:12:842 -> 2105
13:39:12:843 -> 2070
13:39:12:843 -> 2100
13:39:12:843 -> 2054
13:39:12:852 -> 2127
13:39:12:862 -> 2024
13:39:12:872 -> 2064
13:39:12:882 -> 2073
13:39:12:893 -> 2099
13:39:12:902 -> 2067
13:39:12:912 -> 2084
13:39:12:922 -> 2107
13:39:12:932 -> 2072
13:39:12:942 -> 2082
13:39:12:952 -> 2088
13:39:12:962 -> 2089
13:39:12:972 -> 2080
13:39:12:982 -> 2093
13:39:12:992 -> 2077
13:39:13:002 -> 2061
13:39:13:012 -> 2103
13:39:13:023 -> 2048
13:39:13:033 -> 2073
13:39:13:042 -> 2133
13:39:13:053 -> 2053
13:39:13:063 -> 2090
13:39:13:073 -> 2077
13:39:13:083 -> 2079
13:39:13:093 -> 2056
13:39:13:103 -> 2072
13:39:13:113 -> 2058
13:39:13:127 -> 2043
13:39:13:133 -> 2076
13:39:13:143 -> 2081
13:39:13:161 -> 2066
13:39:13:163 -> 2104
13:39:13:173 -> 2051
13:39:13:183 -> 2088
13:39:13:193 -> 2065
13:39:13:203 -> 2117
13:39:13:213 -> 2058
13:39:13:224 -> 2058
13:39:13:233 -> 2113
13:39:13:244 -> 2110
13:39:13:253 -> 2039
13:39:13:264 -> 2154
13:39:13:273 -> 2015
13:39:13:283 -> 2164
13:39:13:294 -> 1988
13:39:13:304 -> 2153
13:39:13:314 -> 2004
13:39:13:324 -> 2121
13:39:13:334 -> 2002
13:39:13:370 -> 2131
13:39:13:372 -> 2021
13:39:13:372 -> 2152
13:39:13:374 -> 2013
13:39:13:391 -> 2124
13:39:13:394 -> 2010
13:39:13:404 -> 2113
13:39:13:415 -> 2058
13:39:13:424 -> 2109
13:39:13:434 -> 2085
13:39:13:444 -> 2038
13:39:13:455 -> 2070
13:39:13:464 -> 2031
13:39:13:474 -> 2071
13:39:13:484 -> 2094
13:39:13:494 -> 2085
13:39:13:505 -> 2086
13:39:13:515 -> 2069
13:39:13:525 -> 2077
13:39:13:535 -> 2063
13:39:13:545 -> 2108
13:39:13:555 -> 2081
13:39:13:565 -> 2081
13:39:13:575 -> 2074
13:39:13:585 -> 2086
13:39:13:595 -> 2064
13:39:13:606 -> 2090
13:39:13:616 -> 2063
13:39:13:625 -> 2088
13:39:13:635 -> 2090
13:39:13:645 -> 2046
13:39:13:655 -> 2061
13:39:13:665 -> 2113
13:39:13:675 -> 2045
13:39:13:685 -> 2136
13:39:13:696 -> 2059
13:39:13:705 -> 2095
13:39:13:715 -> 2056
13:39:13:725 -> 2133
13:39:13:736 -> 2042
13:39:13:746 -> 2132
13:39:13:756 -> 2029
13:39:13:766 -> 2128
13:39:13:776 -> 2036
13:39:13:786 -> 2073
13:39:13:796 -> 2077
13:39:13:806 -> 2118
13:39:13:816 -> 2071
13:39:13:826 -> 2103
13:39:13:836 -> 2007
13:39:13:846 -> 2166
13:39:13:856 -> 2103
13:39:13:866 -> 2140
13:39:13:903 -> 2079
13:39:13:904 -> 2133
13:39:13:904 -> 2007
13:39:13:906 -> 2097
13:39:13:916 -> 2004
13:39:13:927 -> 2193
13:39:13:937 -> 1998
13:39:13:947 -> 2193
13:39:13:956 -> 1939
13:39:13:975 -> 2040
13:39:14:000 -> 2056
13:39:14:000 -> 2111
13:39:14:000 -> 2028
13:39:14:029 -> 2113
13:39:14:029 -> 1957
13:39:14:029 -> 2245
13:39:14:040 -> 1946
13:39:14:047 -> 2157
13:39:14:057 -> 2015
13:39:14:077 -> 2273
13:39:14:080 -> 2063
13:39:14:087 -> 2389
13:39:14:097 -> 1614
13:39:14:107 -> 2146
13:39:14:118 -> 1814
13:39:14:127 -> 2032
13:39:14:142 -> 2262
13:39:14:148 -> 2153
13:39:14:157 -> 1920
13:39:14:173 -> 2202
13:39:14:177 -> 2322
13:39:14:188 -> 2038
13:39:14:198 -> 1910
13:39:14:208 -> 2239
13:39:14:219 -> 1991
13:39:14:228 -> 2408
13:39:14:238 -> 1847
13:39:14:248 -> 2181
13:39:14:266 -> 2059
13:39:14:293 -> 2004
13:39:14:293 -> 1911
13:39:14:293 -> 2040
13:39:14:298 -> 2119
13:39:14:308 -> 2400
13:39:14:318 -> 1628
13:39:14:328 -> 2414
13:39:14:338 -> 1623
13:39:14:348 -> 2277
13:39:14:359 -> 1686
13:39:14:368 -> 2482
13:39:14:378 -> 2032
13:39:14:388 -> 2340
13:39:14:398 -> 2164
13:39:14:432 -> 2095
13:39:14:433 -> 2033
13:39:14:433 -> 2153
13:39:14:439 -> 1745
13:39:14:449 -> 2464
13:39:14:459 -> 1754
13:39:14:470 -> 2541
13:39:14:479 -> 1883
13:39:14:489 -> 2219
13:39:14:499 -> 2080
13:39:14:509 -> 2382
13:39:14:519 -> 1740
13:39:14:529 -> 1789
13:39:14:539 -> 2055
13:39:14:549 -> 2378
13:39:14:559 -> 1995
13:39:14:569 -> 1635
13:39:14:579 -> 2306
13:39:14:589 -> 2403
13:39:14:608 -> 2052
13:39:14:609 -> 2367
13:39:14:620 -> 2044
13:39:14:629 -> 2253
13:39:14:640 -> 1837
13:39:14:650 -> 2136
13:39:14:660 -> 1964
13:39:14:670 -> 2042
13:39:14:680 -> 2081
13:39:14:690 -> 2209
13:39:14:700 -> 1484
13:39:14:710 -> 2455
13:39:14:720 -> 2143
13:39:14:730 -> 2324
13:39:14:740 -> 1792
13:39:14:750 -> 2287
13:39:14:760 -> 1995
13:39:14:770 -> 2214
13:39:14:780 -> 1560
13:39:14:790 -> 2377
13:39:14:800 -> 1693
13:39:14:810 -> 1967
13:39:14:821 -> 1737
13:39:14:830 -> 2227
13:39:14:840 -> 2187
13:39:14:859 -> 2038
13:39:14:861 -> 2162
13:39:14:871 -> 1899
13:39:14:881 -> 2232
13:39:14:891 -> 2135
13:39:14:901 -> 1701
13:39:14:911 -> 2225
13:39:14:921 -> 1249
13:39:14:955 -> 2292
13:39:14:957 -> 2194
13:39:14:957 -> 2207
13:39:14:962 -> 1793
13:39:14:972 -> 2199
13:39:14:981 -> 1822
13:39:14:991 -> 2204
13:39:15:001 -> 1763
13:39:15:011 -> 2116
13:39:15:021 -> 1980
13:39:15:031 -> 2299
13:39:15:041 -> 1717
13:39:15:052 -> 2271
13:39:15:061 -> 2168
13:39:15:071 -> 2137
13:39:15:081 -> 1979
13:39:15:092 -> 2080
13:39:15:102 -> 2103
13:39:15:112 -> 1557
13:39:15:122 -> 2276
13:39:15:132 -> 1821
13:39:15:142 -> 2065
13:39:15:152 -> 2045
13:39:15:170 -> 2168
13:39:15:184 -> 1716
13:39:15:184 -> 2004
13:39:15:193 -> 2143
13:39:15:202 -> 1946
13:39:15:212 -> 1987
13:39:15:222 -> 2254
13:39:15:232 -> 2384
13:39:15:242 -> 1854
13:39:15:252 -> 2189
13:39:15:262 -> 1893
13:39:15:272 -> 2274
13:39:15:282 -> 2035
13:39:15:292 -> 2167
13:39:15:302 -> 1824
13:39:15:312 -> 1844
13:39:15:323 -> 2169
13:39:15:333 -> 1983
13:39:15:343 -> 2208
13:39:15:353 -> 2240
13:39:15:363 -> 2261
13:39:15:373 -> 1941
13:39:15:383 -> 2218
13:39:15:393 -> 1768
13:39:15:403 -> 2181
13:39:15:413 -> 2151
13:39:15:423 -> 1902
13:39:15:433 -> 1899
13:39:15:443 -> 2062
13:39:15:453 -> 2172
13:39:15:489 -> 2239
13:39:15:502 -> 2004
13:39:15:502 -> 2120
13:39:15:502 -> 2292
13:39:15:503 -> 2108
13:39:15:513 -> 2226
13:39:15:525 -> 2090
13:39:15:534 -> 1932
13:39:15:543 -> 1637
13:39:15:571 -> 2115
13:39:15:580 -> 1937
13:39:15:580 -> 2257
13:39:15:617 -> 2204
13:39:15:617 -> 2296
13:39:15:617 -> 1846
13:39:15:617 -> 2088
13:39:15:625 -> 2135
13:39:15:642 -> 1874
13:39:15:665 -> 2111
13:39:15:665 -> 2045
13:39:15:665 -> 2189
13:39:15:674 -> 1908
13:39:15:689 -> 2211
13:39:15:695 -> 1977
13:39:15:704 -> 2264
13:39:15:714 -> 1849
13:39:15:724 -> 2214
13:39:15:734 -> 2003
13:39:15:744 -> 2144
13:39:15:755 -> 2025
13:39:15:764 -> 2146
13:39:15:774 -> 2063
13:39:15:785 -> 2112
13:39:15:795 -> 2025
13:39:15:805 -> 2102
13:39:15:815 -> 2069
13:39:15:827 -> 2056
13:39:15:835 -> 2072
13:39:15:845 -> 2065
13:39:15:855 -> 2039
13:39:15:865 -> 2087
13:39:15:875 -> 2103
13:39:15:885 -> 2058
13:39:15:895 -> 2052
13:39:15:905 -> 2091
13:39:15:915 -> 2077
13:39:15:925 -> 2099
13:39:15:935 -> 2056
13:39:15:945 -> 2114
13:39:15:955 -> 2089
13:39:15:966 -> 2013
13:39:15:975 -> 2054
13:39:15:985 -> 2066
13:39:16:016 -> 2045
13:39:16:017 -> 2059
13:39:16:017 -> 2065
13:39:16:026 -> 2055
13:39:16:036 -> 2102
13:39:16:046 -> 2067
13:39:16:058 -> 2043
13:39:16:066 -> 2125
13:39:16:085 -> 2073
13:39:16:087 -> 2111
13:39:16:096 -> 2025
13:39:16:106 -> 2112
13:39:16:116 -> 2068
13:39:16:126 -> 2081
13:39:16:136 -> 2062
13:39:16:146 -> 2049
13:39:16:156 -> 2058
13:39:16:166 -> 2040
13:39:16:176 -> 2089
13:39:16:187 -> 2111
13:39:16:196 -> 2060
13:39:16:206 -> 2102
13:39:16:216 -> 2026
13:39:16:227 -> 2118
13:39:16:236 -> 2071
13:39:16:247 -> 2045
13:39:16:258 -> 2095
13:39:16:271 -> 2106
13:39:16:277 -> 2039
13:39:16:287 -> 2134
13:39:16:297 -> 2018
13:39:16:308 -> 2156
13:39:16:317 -> 2032
13:39:16:327 -> 2133
13:39:16:345 -> 1999
13:39:16:347 -> 2125
13:39:16:357 -> 1989
13:39:16:369 -> 2171
13:39:16:377 -> 2011
13:39:16:387 -> 2164
13:39:16:397 -> 1985
13:39:16:407 -> 2160
13:39:16:418 -> 1983
13:39:16:427 -> 2167
13:39:16:438 -> 1980
13:39:16:447 -> 2174
13:39:16:458 -> 2003
13:39:16:468 -> 2158
13:39:16:478 -> 1987
13:39:16:488 -> 2168
13:39:16:498 -> 1998
13:39:16:508 -> 2173
13:39:16:538 -> 1989
13:39:16:540 -> 2174
13:39:16:540 -> 1977
13:39:16:548 -> 2158
13:39:16:558 -> 1991
13:39:16:568 -> 2170
13:39:16:578 -> 1994
13:39:16:588 -> 2172
13:39:16:609 -> 1967
13:39:16:610 -> 2205
13:39:16:618 -> 1959
13:39:16:628 -> 2232
13:39:16:638 -> 1952
13:39:16:650 -> 2210
13:39:16:658 -> 2009
13:39:16:669 -> 2228
13:39:16:678 -> 1976
13:39:16:689 -> 2206
13:39:16:699 -> 1946
13:39:16:709 -> 2220
13:39:16:719 -> 1928
13:39:16:729 -> 2236
13:39:16:739 -> 1922
13:39:16:749 -> 2222
13:39:16:759 -> 1919
13:39:16:769 -> 2229
13:39:16:779 -> 1933
13:39:16:789 -> 2244
13:39:16:799 -> 1954
13:39:16:809 -> 2227
13:39:16:819 -> 1942
13:39:16:829 -> 2211
13:39:16:845 -> 1943
13:39:16:849 -> 2236
13:39:16:859 -> 1913
13:39:16:869 -> 2207
13:39:16:880 -> 1958
13:39:16:889 -> 2206
13:39:16:900 -> 1964
13:39:16:910 -> 2191
13:39:16:920 -> 1932
13:39:16:930 -> 2201
13:39:16:940 -> 1971
13:39:16:950 -> 2190
13:39:16:960 -> 1978
13:39:16:970 -> 2156
13:39:16:980 -> 2014
13:39:16:990 -> 2175
13:39:17:000 -> 1933
13:39:17:010 -> 2219
13:39:17:020 -> 2026
13:39:17:030 -> 2190
13:39:17:091 -> 1949
13:39:17:092 -> 2190
13:39:17:092 -> 1981
13:39:17:092 -> 2195
13:39:17:092 -> 1902
13:39:17:092 -> 2053
13:39:17:101 -> 1991
13:39:17:110 -> 2149
13:39:17:120 -> 2019
13:39:17:131 -> 2145
13:39:17:141 -> 1963
13:39:17:151 -> 2141
13:39:17:161 -> 1916
13:39:17:171 -> 2157
13:39:17:181 -> 2010
13:39:17:191 -> 2170
13:39:17:201 -> 1953
13:39:17:211 -> 2101
13:39:17:221 -> 2033
13:39:17:231 -> 2157
13:39:17:241 -> 2065
13:39:17:251 -> 2089
13:39:17:261 -> 2039
13:39:17:271 -> 2146
13:39:17:286 -> 2038
13:39:17:293 -> 2150
13:39:17:301 -> 2055
13:39:17:312 -> 2087
13:39:17:321 -> 2100
13:39:17:331 -> 2109
13:39:17:341 -> 2005
13:39:17:352 -> 2128
13:39:17:362 -> 2090
13:39:17:372 -> 2031
13:39:17:382 -> 2172
13:39:17:392 -> 1991
13:39:17:402 -> 2065
13:39:17:412 -> 2280
13:39:17:422 -> 2097
13:39:17:446 -> 2114
13:39:17:466 -> 2048
13:39:17:466 -> 2130
13:39:17:466 -> 2086
13:39:17:489 -> 2127
13:39:17:489 -> 2038
13:39:17:502 -> 2191
13:39:17:504 -> 1971
13:39:17:512 -> 2248
13:39:17:523 -> 2050
13:39:17:533 -> 2127
13:39:17:542 -> 1956
13:39:17:552 -> 1846
13:39:17:562 -> 2133
13:39:17:573 -> 2126
13:39:17:620 -> 2004
13:39:17:623 -> 2212
13:39:17:623 -> 2324
13:39:17:623 -> 2110
13:39:17:624 -> 2344
13:39:17:633 -> 2070
13:39:17:645 -> 2045
13:39:17:653 -> 2107
13:39:17:663 -> 1904
13:39:17:673 -> 2175
13:39:17:683 -> 1598
13:39:17:693 -> 2337
13:39:17:703 -> 2107
13:39:17:713 -> 1869
13:39:17:723 -> 2067
13:39:17:733 -> 1842
13:39:17:743 -> 2033
13:39:17:753 -> 2370
13:39:17:764 -> 2155
13:39:17:773 -> 1708
13:39:17:783 -> 2084
13:39:17:793 -> 2572
13:39:17:804 -> 2183
13:39:17:814 -> 2155
13:39:17:824 -> 2360
13:39:17:837 -> 2068
13:39:17:844 -> 2217
13:39:17:854 -> 2053
13:39:17:867 -> 2088
13:39:17:874 -> 2306
13:39:17:886 -> 1807
13:39:17:894 -> 1837
13:39:17:904 -> 1645
13:39:17:914 -> 2166
13:39:17:924 -> 1294
13:39:17:934 -> 2296
13:39:17:944 -> 2591
13:39:17:954 -> 1910
13:39:17:964 -> 2353
13:39:17:974 -> 2011
13:39:17:984 -> 2260
13:39:17:994 -> 1933
13:39:18:004 -> 2875
13:39:18:015 -> 2392
13:39:18:027 -> 1566
13:39:18:035 -> 1998
13:39:18:045 -> 1571
13:39:18:055 -> 2260
13:39:18:065 -> 1531
13:39:18:075 -> 2354
13:39:18:085 -> 2002
13:39:18:095 -> 2211
13:39:18:113 -> 2134
13:39:18:115 -> 2352
13:39:18:150 -> 2342
13:39:18:153 -> 1488
13:39:18:153 -> 2447
13:39:18:155 -> 1987
13:39:18:165 -> 1381
13:39:18:175 -> 2123
13:39:18:185 -> 2388
13:39:18:195 -> 2135
13:39:18:205 -> 2430
13:39:18:215 -> 2141
13:39:18:225 -> 2135
13:39:18:235 -> 2239
13:39:18:245 -> 1742
13:39:18:255 -> 2047
13:39:18:266 -> 1599
13:39:18:276 -> 2017
13:39:18:286 -> 2329
13:39:18:296 -> 2245
13:39:18:306 -> 1616
13:39:18:316 -> 1886
13:39:18:326 -> 2301
13:39:18:343 -> 2035
13:39:18:346 -> 2149
13:39:18:356 -> 2051
13:39:18:366 -> 2420
13:39:18:376 -> 2127
13:39:18:386 -> 2103
13:39:18:396 -> 1743
13:39:18:406 -> 1814
13:39:18:416 -> 2176
13:39:18:426 -> 2052
13:39:18:436 -> 2429
13:39:18:446 -> 2236
13:39:18:456 -> 1954
13:39:18:466 -> 2233
13:39:18:476 -> 1622
13:39:18:487 -> 2021
13:39:18:497 -> 2042
13:39:18:507 -> 2359
13:39:18:517 -> 1971
13:39:18:527 -> 2340
13:39:18:537 -> 1842
13:39:18:547 -> 2375
13:39:18:558 -> 1907
13:39:18:567 -> 2265
13:39:18:577 -> 2067
13:39:18:595 -> 2034
13:39:18:598 -> 2070
13:39:18:607 -> 2207
13:39:18:618 -> 2015
13:39:18:629 -> 1922
13:39:18:637 -> 1950
13:39:18:649 -> 2033
13:39:18:675 -> 1979
13:39:18:676 -> 2208
13:39:18:677 -> 1856
13:39:18:687 -> 2359
13:39:18:697 -> 2109
13:39:18:708 -> 2075
13:39:18:718 -> 2166
13:39:18:728 -> 2370
13:39:18:738 -> 2074
13:39:18:748 -> 2210
13:39:18:758 -> 2122
13:39:18:768 -> 1644
13:39:18:778 -> 2229
13:39:18:793 -> 2174
13:39:18:799 -> 2106
13:39:18:808 -> 2505
13:39:18:818 -> 2222
13:39:18:828 -> 2243
13:39:18:838 -> 1828
13:39:18:848 -> 2107
13:39:18:858 -> 2201
13:39:18:868 -> 2016
13:39:18:878 -> 2141
13:39:18:888 -> 1985
13:39:18:898 -> 2073
13:39:18:909 -> 2480
13:39:18:919 -> 1852
13:39:18:928 -> 2057
13:39:18:939 -> 2277
13:39:18:949 -> 1916
13:39:18:959 -> 2349
13:39:18:969 -> 2138
13:39:18:979 -> 1906
13:39:18:995 -> 1482
13:39:18:999 -> 1941
13:39:19:009 -> 2402
13:39:19:019 -> 1740
13:39:19:029 -> 1984
13:39:19:039 -> 1998
13:39:19:049 -> 2167
13:39:19:059 -> 2177
13:39:19:069 -> 2145
13:39:19:079 -> 1539
13:39:19:089 -> 2122
13:39:19:099 -> 1910
13:39:19:109 -> 2391
13:39:19:119 -> 1967
13:39:19:130 -> 2096
13:39:19:140 -> 1868
13:39:19:150 -> 2262
13:39:19:160 -> 1716
13:39:19:170 -> 2269
13:39:19:208 -> 1754
13:39:19:209 -> 2236
13:39:19:209 -> 2126
13:39:19:210 -> 2093
13:39:19:243 -> 1823
13:39:19:268 -> 2371
13:39:19:268 -> 2028
13:39:19:268 -> 2230
13:39:19:268 -> 2063
13:39:19:286 -> 2585
13:39:19:286 -> 1969
13:39:19:290 -> 1975
13:39:19:301 -> 2209
13:39:19:321 -> 2366
13:39:19:321 -> 1651
13:39:19:330 -> 2265
13:39:19:340 -> 1999
13:39:19:351 -> 1988
13:39:19:361 -> 2102
13:39:19:370 -> 2403
13:39:19:381 -> 1676
13:39:19:391 -> 2170
13:39:19:401 -> 1909
13:39:19:411 -> 2339
13:39:19:421 -> 2044
13:39:19:431 -> 2122
13:39:19:441 -> 1978
13:39:19:451 -> 2088
13:39:19:461 -> 2168
13:39:19:476 -> 1769
13:39:19:482 -> 2177
13:39:19:491 -> 2493
13:39:19:501 -> 1803
13:39:19:511 -> 2003
13:39:19:521 -> 2102
13:39:19:531 -> 2287
13:39:19:541 -> 1798
13:39:19:552 -> 2217
13:39:19:565 -> 2020
13:39:19:571 -> 2143
13:39:19:581 -> 1991
13:39:19:595 -> 2050
13:39:19:602 -> 1968
13:39:19:612 -> 2157
13:39:19:622 -> 2037
13:39:19:632 -> 2074
13:39:19:642 -> 1869
13:39:19:652 -> 2101
13:39:19:662 -> 2013
13:39:19:672 -> 2136
13:39:19:682 -> 2015
13:39:19:692 -> 2160
13:39:19:702 -> 1993
13:39:19:738 -> 2135
13:39:19:739 -> 2014
13:39:19:739 -> 2080
13:39:19:742 -> 2056
13:39:19:752 -> 2126
13:39:19:762 -> 2075
13:39:19:772 -> 2151
13:39:19:782 -> 2093
13:39:19:793 -> 2171
13:39:19:802 -> 2097
13:39:19:813 -> 2091
13:39:19:823 -> 2075
13:39:19:833 -> 2067
13:39:19:843 -> 2029
13:39:19:854 -> 2093
13:39:19:863 -> 2060
13:39:19:873 -> 2115
13:39:19:883 -> 2120
13:39:19:893 -> 2087
13:39:19:903 -> 2073
13:39:19:913 -> 2086
13:39:19:923 -> 2062
13:39:19:933 -> 2070
13:39:19:943 -> 2150
13:39:19:953 -> 2047
13:39:19:963 -> 2096
13:39:19:973 -> 2046
13:39:19:983 -> 2059
13:39:19:993 -> 2101
13:39:20:007 -> 2072
13:39:20:016 -> 2084
13:39:20:023 -> 2075
13:39:20:033 -> 2111
13:39:20:043 -> 2009
13:39:20:053 -> 2059
13:39:20:064 -> 2107
13:39:20:074 -> 2077
13:39:20:084 -> 2092
13:39:20:094 -> 2072
13:39:20:104 -> 2114
13:39:20:114 -> 2056
13:39:20:124 -> 2183
13:39:20:135 -> 2070
13:39:20:144 -> 2134
13:39:20:154 -> 2008
13:39:20:164 -> 2113
13:39:20:174 -> 2043
13:39:20:184 -> 2109
13:39:20:194 -> 2049
13:39:20:204 -> 2066
13:39:20:214 -> 2047
13:39:20:224 -> 2124
13:39:20:235 -> 2053
13:39:20:271 -> 2104
13:39:20:272 -> 1983
13:39:20:272 -> 2144
13:39:20:274 -> 2003
13:39:20:285 -> 2153
13:39:20:295 -> 1973
13:39:20:305 -> 2147
13:39:20:316 -> 1979
13:39:20:325 -> 2138
13:39:20:335 -> 1966
13:39:20:345 -> 2153
13:39:20:355 -> 2016
13:39:20:365 -> 2109
13:39:20:375 -> 2033
13:39:20:385 -> 2116
13:39:20:395 -> 2025
13:39:20:405 -> 2077
13:39:20:415 -> 2068
13:39:20:425 -> 2079
13:39:20:435 -> 2089
13:39:20:445 -> 2092
13:39:20:465 -> 2083
13:39:20:466 -> 2080
13:39:20:475 -> 2082
13:39:20:487 -> 2081
13:39:20:495 -> 2070
13:39:20:506 -> 2089
13:39:20:516 -> 2077
13:39:20:526 -> 2068
13:39:20:536 -> 2074
13:39:20:546 -> 2101
13:39:20:556 -> 2080
13:39:20:566 -> 2073
13:39:20:576 -> 2081
13:39:20:586 -> 2064
13:39:20:596 -> 2089
13:39:20:606 -> 2077
13:39:20:616 -> 2072
13:39:20:626 -> 2079
13:39:20:636 -> 2075
13:39:20:646 -> 2101
13:39:20:665 -> 2057
13:39:20:667 -> 2113
13:39:20:676 -> 2040
13:39:20:686 -> 2119
13:39:20:696 -> 2034
13:39:20:706 -> 2122
13:39:20:717 -> 2067
13:39:20:726 -> 2107
13:39:20:737 -> 2049
13:39:20:747 -> 2166
13:39:20:757 -> 2068
13:39:20:767 -> 2103
13:39:20:801 -> 2065
13:39:20:802 -> 2104
13:39:20:802 -> 2057
13:39:20:808 -> 2104
13:39:20:818 -> 2058
13:39:20:827 -> 2102
13:39:20:837 -> 2062
13:39:20:847 -> 2113
13:39:20:858 -> 2074
13:39:20:869 -> 2081
13:39:20:878 -> 2031
13:39:20:887 -> 2141
13:39:20:897 -> 2015
13:39:20:915 -> 2135
13:39:20:922 -> 2019
13:39:20:930 -> 2157
13:39:20:940 -> 1998
13:39:20:948 -> 2173
13:39:20:960 -> 2019
13:39:20:984 -> 2148
13:39:20:984 -> 2020
13:39:20:997 -> 2160
13:39:21:026 -> 1987
13:39:21:026 -> 2152
13:39:21:026 -> 1971
13:39:21:058 -> 2184
13:39:21:058 -> 1984
13:39:21:058 -> 2129
13:39:21:058 -> 2009
13:39:21:071 -> 2162
13:39:21:078 -> 1996
13:39:21:088 -> 2156
13:39:21:098 -> 1988
13:39:21:108 -> 2145
13:39:21:118 -> 1994
13:39:21:128 -> 2174
13:39:21:141 -> 1966
13:39:21:148 -> 2181
13:39:21:159 -> 1904
13:39:21:168 -> 2180
13:39:21:179 -> 1970
13:39:21:188 -> 2199
13:39:21:199 -> 1951
13:39:21:215 -> 2177
13:39:21:223 -> 1952
13:39:21:229 -> 2169
13:39:21:239 -> 1986
13:39:21:249 -> 2211
13:39:21:259 -> 1975
13:39:21:269 -> 2243
13:39:21:279 -> 1937
13:39:21:289 -> 2222
13:39:21:299 -> 1944
13:39:21:322 -> 2223
13:39:21:324 -> 1956
13:39:21:329 -> 2243
13:39:21:340 -> 1955
13:39:21:349 -> 2197
13:39:21:359 -> 1910
13:39:21:369 -> 2218
13:39:21:379 -> 1953
13:39:21:389 -> 2223
13:39:21:399 -> 1979
13:39:21:409 -> 2229
13:39:21:419 -> 1969
13:39:21:429 -> 2190
13:39:21:445 -> 1952
13:39:21:450 -> 2293
13:39:21:460 -> 1949
13:39:21:470 -> 2193
13:39:21:480 -> 1870
13:39:21:490 -> 2207
13:39:21:500 -> 1963
13:39:21:511 -> 2169
13:39:21:520 -> 2006
13:39:21:530 -> 2190
13:39:21:540 -> 1908
13:39:21:552 -> 2273
13:39:21:560 -> 1894
13:39:21:570 -> 2260
13:39:21:580 -> 2071
13:39:21:591 -> 2098
13:39:21:600 -> 2039
13:39:21:610 -> 2164
13:39:21:620 -> 2016
13:39:21:630 -> 2197
13:39:21:640 -> 2062
13:39:21:650 -> 2312
13:39:21:660 -> 1793
13:39:21:670 -> 2153
13:39:21:681 -> 1899
13:39:21:691 -> 2122
13:39:21:703 -> 1936
13:39:21:711 -> 2154
13:39:21:721 -> 1969
13:39:21:731 -> 2060
13:39:21:741 -> 2328
13:39:21:752 -> 2217
13:39:21:761 -> 2116
13:39:21:771 -> 1915
13:39:21:781 -> 1991
13:39:21:791 -> 2212
13:39:21:801 -> 1729
13:39:21:811 -> 2081
13:39:21:845 -> 2522
13:39:21:847 -> 2071
13:39:21:847 -> 2181
13:39:21:851 -> 2422
13:39:21:861 -> 1667
13:39:21:871 -> 2119
13:39:21:881 -> 1855
13:39:21:892 -> 2110
13:39:21:902 -> 2079
13:39:21:912 -> 2084
13:39:21:922 -> 2063
13:39:21:932 -> 2425
13:39:21:942 -> 2168
13:39:21:957 -> 1969
13:39:21:962 -> 1721
13:39:21:972 -> 1951
13:39:21:982 -> 1994
13:39:21:992 -> 2120
13:39:22:002 -> 2100
13:39:22:012 -> 2123
13:39:22:022 -> 2038
13:39:22:033 -> 2016
13:39:22:042 -> 2352
13:39:22:053 -> 1959
13:39:22:062 -> 2149
13:39:22:072 -> 2112
13:39:22:082 -> 1404
13:39:22:092 -> 2163
13:39:22:102 -> 2132
13:39:22:113 -> 2143
13:39:22:122 -> 1887
13:39:22:133 -> 2132
13:39:22:143 -> 1850
13:39:22:153 -> 2075
13:39:22:163 -> 2196
13:39:22:173 -> 2346
13:39:22:183 -> 1919
13:39:22:193 -> 2263
13:39:22:203 -> 2231
13:39:22:224 -> 2171
13:39:22:225 -> 2275
13:39:22:233 -> 2206
13:39:22:243 -> 2167
13:39:22:254 -> 2345
13:39:22:263 -> 1979
13:39:22:274 -> 2304
13:39:22:283 -> 2328
13:39:22:293 -> 1987
13:39:22:305 -> 1759
13:39:22:313 -> 2149
13:39:22:323 -> 2139
13:39:22:333 -> 2034
13:39:22:343 -> 2120
13:39:22:379 -> 2158
13:39:22:381 -> 2211
13:39:22:381 -> 1798
13:39:22:384 -> 2189
13:39:22:402 -> 2142
13:39:22:425 -> 1978
13:39:22:425 -> 1933
13:39:22:425 -> 2254
13:39:22:441 -> 2064
13:39:22:460 -> 2213
13:39:22:460 -> 1987
13:39:22:466 -> 2055
13:39:22:474 -> 1956
13:39:22:488 -> 2174
13:39:22:495 -> 2217
13:39:22:504 -> 2060
13:39:22:514 -> 1956
13:39:22:524 -> 2035
13:39:22:544 -> 2135
13:39:22:545 -> 2147
13:39:22:554 -> 2059
13:39:22:564 -> 2306
13:39:22:575 -> 1999
13:39:22:585 -> 2206
13:39:22:595 -> 1902
13:39:22:605 -> 2084
13:39:22:615 -> 1975
13:39:22:625 -> 2056
13:39:22:635 -> 1902
13:39:22:645 -> 2307
13:39:22:655 -> 2012
13:39:22:665 -> 2166
13:39:22:675 -> 1783
13:39:22:685 -> 2068
13:39:22:695 -> 2210
13:39:22:705 -> 2262
13:39:22:715 -> 1882
13:39:22:725 -> 2300
13:39:22:735 -> 2122
13:39:22:745 -> 2123
13:39:22:755 -> 2094
13:39:22:765 -> 2137
13:39:22:775 -> 2117
13:39:22:785 -> 1682
13:39:22:796 -> 2052
13:39:22:809 -> 2072
13:39:22:816 -> 2021
13:39:22:826 -> 2047
13:39:22:836 -> 1727
13:39:22:849 -> 2170
13:39:22:856 -> 1964
13:39:22:866 -> 2194
13:39:22:876 -> 2186
13:39:22:912 -> 1953
13:39:22:914 -> 1957
13:39:22:914 -> 2211
13:39:22:916 -> 1981
13:39:22:926 -> 2084
13:39:22:936 -> 2181
13:39:22:946 -> 2057
13:39:22:956 -> 2112
13:39:22:966 -> 1738
13:39:22:976 -> 2101
13:39:22:987 -> 2089
13:39:22:996 -> 2086
13:39:23:006 -> 2101
13:39:23:017 -> 2105
13:39:23:026 -> 2091
13:39:23:037 -> 2060
13:39:23:047 -> 2086
13:39:23:066 -> 1908
13:39:23:073 -> 2149
13:39:23:077 -> 2044
13:39:23:087 -> 2115
13:39:23:097 -> 2031
13:39:23:108 -> 2107
13:39:23:118 -> 2061
13:39:23:127 -> 2093
13:39:23:137 -> 2064
13:39:23:149 -> 2078
13:39:23:157 -> 2061
13:39:23:167 -> 2105
13:39:23:177 -> 2034
13:39:23:187 -> 2086
13:39:23:197 -> 2072
13:39:23:207 -> 2134
13:39:23:217 -> 2034
13:39:23:227 -> 2122
13:39:23:238 -> 2056
13:39:23:247 -> 2135
13:39:23:257 -> 2043
13:39:23:268 -> 2144
13:39:23:278 -> 2059
13:39:23:288 -> 2153
13:39:23:298 -> 1997
13:39:23:308 -> 2152
13:39:23:318 -> 2011
13:39:23:328 -> 2122
13:39:23:344 -> 2020
13:39:23:349 -> 2137
13:39:23:358 -> 1995
13:39:23:368 -> 2136
13:39:23:378 -> 1990
13:39:23:388 -> 2194
13:39:23:398 -> 1965
13:39:23:408 -> 2142
13:39:23:436 -> 1993
13:39:23:437 -> 2197
13:39:23:438 -> 1975
13:39:23:448 -> 2150
13:39:23:458 -> 1963
13:39:23:469 -> 2176
13:39:23:479 -> 1963
13:39:23:494 -> 2173
13:39:23:505 -> 1907
13:39:23:509 -> 2227
13:39:23:520 -> 1971
13:39:23:529 -> 2104
13:39:23:539 -> 1981
13:39:23:549 -> 2198
13:39:23:559 -> 1974
13:39:23:569 -> 2190
13:39:23:579 -> 1977
13:39:23:592 -> 2176
13:39:23:599 -> 1965
13:39:23:609 -> 2225
13:39:23:619 -> 1945
13:39:23:629 -> 2224
13:39:23:639 -> 1951
13:39:23:649 -> 2244
13:39:23:659 -> 1937
13:39:23:669 -> 2201
13:39:23:679 -> 1930
13:39:23:689 -> 2268
13:39:23:700 -> 1929
13:39:23:709 -> 2223
13:39:23:720 -> 1945
13:39:23:731 -> 2222
13:39:23:740 -> 1943
13:39:23:750 -> 2232
13:39:23:760 -> 1956
13:39:23:771 -> 2226
13:39:23:820 -> 1939
13:39:23:820 -> 2281
13:39:23:820 -> 1933
13:39:23:820 -> 2236
13:39:23:820 -> 1951
13:39:23:862 -> 2223
13:39:23:862 -> 1936
13:39:23:862 -> 2242
13:39:23:862 -> 1943
13:39:23:871 -> 2225
13:39:23:885 -> 1957
13:39:23:890 -> 2167
13:39:23:915 -> 1955
13:39:23:919 -> 2201
13:39:23:927 -> 1956
13:39:23:931 -> 2203
13:39:23:964 -> 1954
13:39:23:965 -> 2189
13:39:23:965 -> 1968
13:39:23:971 -> 2197
13:39:23:981 -> 1954
13:39:23:991 -> 2210
13:39:24:001 -> 1986
13:39:24:011 -> 2175
13:39:24:021 -> 1976
13:39:24:032 -> 2182
13:39:24:041 -> 1990
13:39:24:052 -> 2185
13:39:24:062 -> 1924
13:39:24:071 -> 2167
13:39:24:081 -> 2034
13:39:24:091 -> 2167
13:39:24:112 -> 1982
13:39:24:114 -> 2161
13:39:24:121 -> 1979
13:39:24:131 -> 2184
13:39:24:142 -> 1999
13:39:24:152 -> 2135
13:39:24:162 -> 1994
13:39:24:174 -> 2126
13:39:24:182 -> 2018
13:39:24:192 -> 2156
13:39:24:202 -> 2011
13:39:24:212 -> 2140
13:39:24:222 -> 2022
13:39:24:232 -> 2137
13:39:24:242 -> 2021
13:39:24:252 -> 2143
13:39:24:262 -> 2039
13:39:24:272 -> 2129
13:39:24:282 -> 2069
13:39:24:292 -> 2126
13:39:24:308 -> 2023
13:39:24:312 -> 2124
13:39:24:322 -> 2043
13:39:24:332 -> 2127
13:39:24:342 -> 2022
13:39:24:352 -> 2130
13:39:24:362 -> 2030
13:39:24:372 -> 2136
13:39:24:382 -> 2048
13:39:24:393 -> 2108
13:39:24:403 -> 2007
13:39:24:413 -> 2109
13:39:24:423 -> 2053
13:39:24:433 -> 2112
13:39:24:443 -> 2054
13:39:24:453 -> 2121
13:39:24:463 -> 2055
13:39:24:495 -> 2110
13:39:24:496 -> 2021
13:39:24:496 -> 2107
13:39:24:503 -> 2076
13:39:24:513 -> 2111
13:39:24:523 -> 2070
13:39:24:544 -> 2100
13:39:24:546 -> 2068
13:39:24:554 -> 2105
13:39:24:563 -> 2063
13:39:24:573 -> 2071
13:39:24:587 -> 2084
13:39:24:594 -> 2089
13:39:24:604 -> 2091
13:39:24:613 -> 2076
13:39:24:624 -> 2104
13:39:24:634 -> 2106
13:39:24:644 -> 2083
13:39:24:654 -> 2070
13:39:24:664 -> 2082
13:39:24:674 -> 2080
13:39:24:684 -> 2075
13:39:24:694 -> 2049
13:39:24:704 -> 2048
13:39:24:714 -> 2096
13:39:24:724 -> 2091
13:39:24:735 -> 2084
13:39:24:744 -> 2086
13:39:24:763 -> 2074
13:39:24:764 -> 2109
13:39:24:774 -> 2067
13:39:24:784 -> 2079
13:39:24:794 -> 2067
13:39:24:804 -> 2082
13:39:24:814 -> 2029
13:39:24:824 -> 2107
13:39:24:835 -> 2046
13:39:24:845 -> 2109
13:39:24:855 -> 2055
13:39:24:865 -> 2089
13:39:24:875 -> 2048
13:39:24:885 -> 2104
13:39:24:895 -> 2059
13:39:24:905 -> 2133
13:39:24:915 -> 2034
13:39:24:925 -> 2129
13:39:24:936 -> 1998
13:39:24:945 -> 2152
13:39:24:955 -> 1974
13:39:24:965 -> 2144
13:39:24:975 -> 2021
13:39:24:986 -> 2149
13:39:25:026 -> 2022
13:39:25:027 -> 2142
13:39:25:027 -> 2027
13:39:25:027 -> 2094
13:39:25:035 -> 2005
13:39:25:048 -> 2097
13:39:25:056 -> 2017
13:39:25:066 -> 2108
13:39:25:076 -> 2030
13:39:25:086 -> 2089
13:39:25:096 -> 2068
13:39:25:106 -> 2083
13:39:25:116 -> 2079
13:39:25:126 -> 2061
13:39:25:136 -> 2079
13:39:25:146 -> 2085
13:39:25:156 -> 2079
13:39:25:166 -> 2083
13:39:25:176 -> 2067
13:39:25:186 -> 2084
13:39:25:196 -> 2081
13:39:25:206 -> 2089
13:39:25:217 -> 2081
13:39:25:226 -> 2095
13:39:25:236 -> 2068
13:39:25:246 -> 2064
13:39:25:256 -> 2103
13:39:25:266 -> 2060
13:39:25:276 -> 2093
13:39:25:291 -> 2089
13:39:25:298 -> 2071
13:39:25:307 -> 2115
13:39:25:317 -> 2068
13:39:25:327 -> 2141
13:39:25:348 -> 2035
13:39:25:348 -> 2135
13:39:25:365 -> 2016
13:39:25:385 -> 2138
13:39:25:385 -> 2052
13:39:25:402 -> 2101
13:39:25:402 -> 2041
13:39:25:407 -> 2119
13:39:25:417 -> 2053
13:39:25:442 -> 2124
13:39:25:442 -> 2058
13:39:25:450 -> 2073
13:39:25:462 -> 2071
13:39:25:469 -> 2067
13:39:25:489 -> 2066
13:39:25:489 -> 2063
13:39:25:504 -> 2074
13:39:25:508 -> 2131
13:39:25:518 -> 2052
13:39:25:570 -> 2136
13:39:25:574 -> 2037
13:39:25:574 -> 2120
13:39:25:574 -> 2038
13:39:25:574 -> 2197
13:39:25:578 -> 1987
13:39:25:589 -> 2208
13:39:25:598 -> 1983
13:39:25:608 -> 2173
13:39:25:618 -> 2043
13:39:25:628 -> 2174
13:39:25:639 -> 2001
13:39:25:648 -> 2200
13:39:25:664 -> 1960
13:39:25:671 -> 2255
13:39:25:679 -> 1898
13:39:25:690 -> 2130
13:39:25:698 -> 2052
13:39:25:708 -> 1797
13:39:25:718 -> 1971
13:39:25:728 -> 2067
13:39:25:739 -> 2028
13:39:25:749 -> 2087
13:39:25:759 -> 2009
13:39:25:769 -> 2116
13:39:25:779 -> 2011
13:39:25:789 -> 2328
13:39:25:799 -> 1667
13:39:25:809 -> 2464
13:39:25:819 -> 2058
13:39:25:829 -> 2178
13:39:25:839 -> 1667
13:39:25:849 -> 2202
13:39:25:859 -> 1994
13:39:25:869 -> 2294
13:39:25:879 -> 2012
13:39:25:902 -> 1396
13:39:25:904 -> 2112
13:39:25:909 -> 2535
13:39:25:920 -> 1727
13:39:25:929 -> 2482
13:39:25:940 -> 1687
13:39:25:950 -> 2473
13:39:25:960 -> 2174
13:39:25:970 -> 1842
13:39:25:980 -> 1766
13:39:25:990 -> 2554
13:39:26:000 -> 2034
13:39:26:010 -> 1884
13:39:26:020 -> 2105
13:39:26:030 -> 2451
13:39:26:040 -> 2356
13:39:26:050 -> 1729
13:39:26:060 -> 1829
13:39:26:118 -> 2093
13:39:26:120 -> 1964
13:39:26:120 -> 2369
13:39:26:120 -> 2142
13:39:26:120 -> 3069
13:39:26:126 -> 1981
13:39:26:130 -> 2078
13:39:26:141 -> 1635
13:39:26:151 -> 2719
13:39:26:161 -> 1940
13:39:26:171 -> 2395
13:39:26:181 -> 2006
13:39:26:191 -> 2021
13:39:26:201 -> 1789
13:39:26:211 -> 2518
13:39:26:221 -> 2317
13:39:26:231 -> 2303
13:39:26:241 -> 1941
13:39:26:251 -> 2079
13:39:26:261 -> 1484
13:39:26:271 -> 2203
13:39:26:281 -> 1691
13:39:26:291 -> 2482
13:39:26:301 -> 2046
13:39:26:311 -> 1877
13:39:26:327 -> 2439
13:39:26:334 -> 2105
13:39:26:341 -> 2427
13:39:26:352 -> 2267
13:39:26:361 -> 2098
13:39:26:371 -> 1918
13:39:26:381 -> 1887
13:39:26:391 -> 2128
13:39:26:402 -> 1465
13:39:26:412 -> 2355
13:39:26:422 -> 1942
13:39:26:432 -> 2311
13:39:26:442 -> 1880
13:39:26:452 -> 2369
13:39:26:462 -> 2006
13:39:26:472 -> 2134
13:39:26:482 -> 1834
13:39:26:492 -> 1979
13:39:26:523 -> 1742
13:39:26:524 -> 1724
13:39:26:524 -> 1983
13:39:26:532 -> 1939
13:39:26:542 -> 2000
13:39:26:552 -> 2113
13:39:26:563 -> 2298
13:39:26:574 -> 2206
13:39:26:584 -> 2387
13:39:26:598 -> 1950
13:39:26:602 -> 2302
13:39:26:612 -> 2046
13:39:26:651 -> 2190
13:39:26:652 -> 2416
13:39:26:652 -> 2105
13:39:26:654 -> 1646
13:39:26:663 -> 2127
13:39:26:673 -> 1946
13:39:26:683 -> 2038
13:39:26:693 -> 2365
13:39:26:704 -> 2309
13:39:26:714 -> 2066
13:39:26:723 -> 2181
13:39:26:733 -> 2400
13:39:26:743 -> 2332
13:39:26:753 -> 2311
13:39:26:763 -> 2098
13:39:26:773 -> 2597
13:39:26:783 -> 2517
13:39:26:793 -> 2107
13:39:26:810 -> 1510
13:39:26:813 -> 1359
13:39:26:824 -> 2091
13:39:26:847 -> 1855
