13:28:11:501 -> 2181
13:28:11:511 -> 1946
13:28:11:521 -> 2179
13:28:11:531 -> 1924
13:28:11:541 -> 2196
13:28:11:551 -> 1942
13:28:11:561 -> 2146
13:28:11:571 -> 1966
13:28:11:581 -> 2158
13:28:11:591 -> 1987
13:28:11:601 -> 2138
13:28:11:611 -> 1953
13:28:11:621 -> 2130
13:28:11:633 -> 1976
13:28:11:641 -> 2164
13:28:11:652 -> 1959
13:28:11:661 -> 2127
13:28:11:671 -> 1970
13:28:11:682 -> 2099
13:28:11:691 -> 1956
13:28:11:709 -> 2135
13:28:11:712 -> 1994
13:28:11:722 -> 2117
13:28:11:732 -> 2013
13:28:11:742 -> 2089
13:28:11:752 -> 1998
13:28:11:762 -> 2119
13:28:11:772 -> 2030
13:28:11:782 -> 2107
13:28:11:792 -> 2042
13:28:11:802 -> 2120
13:28:11:812 -> 2019
13:28:11:822 -> 2120
13:28:11:832 -> 2058
13:28:11:842 -> 2132
13:28:11:853 -> 2059
13:28:11:862 -> 2132
13:28:11:872 -> 2043
13:28:11:883 -> 2137
13:28:11:892 -> 2050
13:28:11:902 -> 2130
13:28:11:913 -> 2042
13:28:11:922 -> 2129
13:28:11:933 -> 2076
13:28:11:943 -> 2118
13:28:11:953 -> 2058
13:28:11:982 -> 2113
13:28:11:984 -> 2066
13:28:11:984 -> 2095
13:28:11:994 -> 2084
13:28:12:003 -> 2118
13:28:12:013 -> 2081
13:28:12:023 -> 2113
13:28:12:033 -> 2080
13:28:12:043 -> 2113
13:28:12:053 -> 2089
13:28:12:063 -> 2109
13:28:12:073 -> 2084
13:28:12:084 -> 2109
13:28:12:093 -> 2081
13:28:12:114 -> 2092
13:28:12:134 -> 2079
13:28:12:134 -> 2067
13:28:12:139 -> 2081
13:28:12:153 -> 2050
13:28:12:158 -> 2092
13:28:12:164 -> 2046
13:28:12:174 -> 2080
13:28:12:184 -> 2063
13:28:12:194 -> 2082
13:28:12:204 -> 2063
13:28:12:214 -> 2086
13:28:12:224 -> 2047
13:28:12:234 -> 2072
13:28:12:244 -> 2053
13:28:12:254 -> 2088
13:28:12:264 -> 2033
13:28:12:275 -> 2112
13:28:12:284 -> 2040
13:28:12:294 -> 2114
13:28:12:304 -> 2020
13:28:12:315 -> 2127
13:28:12:324 -> 2000
13:28:12:335 -> 2130
13:28:12:344 -> 1993
13:28:12:355 -> 2144
13:28:12:364 -> 2004
13:28:12:375 -> 2133
13:28:12:385 -> 2048
13:28:12:395 -> 2117
13:28:12:405 -> 2043
13:28:12:415 -> 2112
13:28:12:426 -> 2072
13:28:12:435 -> 2097
13:28:12:454 -> 2087
13:28:12:455 -> 2075
13:28:12:465 -> 2100
13:28:12:475 -> 2067
13:28:12:507 -> 2109
13:28:12:508 -> 2032
13:28:12:508 -> 2102
13:28:12:515 -> 2079
13:28:12:525 -> 2092
13:28:12:535 -> 2062
13:28:12:545 -> 2112
13:28:12:555 -> 2073
13:28:12:565 -> 2106
13:28:12:575 -> 2087
13:28:12:585 -> 2126
13:28:12:605 -> 2043
13:28:12:607 -> 2151
13:28:12:616 -> 2098
13:28:12:628 -> 2046
13:28:12:636 -> 2002
13:28:12:646 -> 2089
13:28:12:657 -> 2010
13:28:12:667 -> 2091
13:28:12:676 -> 2107
13:28:12:686 -> 1997
13:28:12:696 -> 2002
13:28:12:706 -> 2098
13:28:12:716 -> 2255
13:28:12:727 -> 2073
13:28:12:737 -> 2086
13:28:12:747 -> 2146
13:28:12:757 -> 2137
13:28:12:766 -> 2031
13:28:12:776 -> 2121
13:28:12:786 -> 2080
13:28:12:796 -> 2152
13:28:12:806 -> 2169
13:28:12:818 -> 2054
13:28:12:835 -> 2022
13:28:12:840 -> 1953
13:28:12:847 -> 2083
13:28:12:859 -> 2099
13:28:12:867 -> 2009
13:28:12:877 -> 2134
13:28:12:887 -> 2070
13:28:12:897 -> 2005
13:28:12:908 -> 2286
13:28:12:917 -> 1883
13:28:12:927 -> 2208
13:28:12:938 -> 2362
13:28:12:955 -> 2590
13:28:12:978 -> 2429
13:28:12:978 -> 1932
13:28:12:978 -> 2692
13:28:12:987 -> 1620
13:28:13:075 -> 1948
13:28:13:075 -> 2247
13:28:13:084 -> 2653
13:28:13:084 -> 2877
13:28:13:084 -> 2898
13:28:13:084 -> 1691
13:28:13:084 -> 2714
13:28:13:084 -> 2402
13:28:13:084 -> 2042
13:28:13:101 -> 588
13:28:13:101 -> 2984
13:28:13:110 -> 1484
13:28:13:120 -> 2829
13:28:13:133 -> 1975
13:28:13:150 -> 2804
13:28:13:150 -> 2523
13:28:13:158 -> 653
13:28:13:168 -> 2029
13:28:13:178 -> 1664
13:28:13:188 -> 2766
13:28:13:199 -> 1240
13:28:13:208 -> 3546
13:28:13:221 -> 3140
13:28:13:234 -> 1237
13:28:13:238 -> 2367
13:28:13:249 -> 1803
13:28:13:259 -> 2134
13:28:13:269 -> 1574
13:28:13:279 -> 3236
13:28:13:289 -> 1447
13:28:13:299 -> 3057
13:28:13:309 -> 1159
13:28:13:319 -> 2508
13:28:13:329 -> 2970
13:28:13:339 -> 2469
13:28:13:351 -> 2263
13:28:13:359 -> 1787
13:28:13:371 -> 1613
13:28:13:379 -> 2643
13:28:13:389 -> 1267
13:28:13:400 -> 2545
13:28:13:409 -> 1947
13:28:13:419 -> 3083
13:28:13:429 -> 1233
13:28:13:440 -> 2228
13:28:13:449 -> 1074
13:28:13:468 -> 1709
13:28:13:470 -> 1832
13:28:13:480 -> 1624
13:28:13:490 -> 1042
13:28:13:500 -> 2431
13:28:13:510 -> 1976
13:28:13:520 -> 2638
13:28:13:530 -> 2383
13:28:13:540 -> 2619
13:28:13:550 -> 1424
13:28:13:560 -> 2353
13:28:13:570 -> 2453
13:28:13:602 -> 2198
13:28:13:602 -> 1487
13:28:13:602 -> 2696
13:28:13:610 -> 1095
13:28:13:620 -> 2555
13:28:13:630 -> 1792
13:28:13:640 -> 2781
13:28:13:651 -> 2408
13:28:13:660 -> 2741
13:28:13:670 -> 1527
13:28:13:680 -> 2442
13:28:13:691 -> 2575
13:28:13:700 -> 2286
13:28:13:710 -> 1305
13:28:13:720 -> 1363
13:28:13:731 -> 2268
13:28:13:741 -> 2966
13:28:13:751 -> 2453
13:28:13:761 -> 2555
13:28:13:773 -> 2094
13:28:13:781 -> 1263
13:28:13:791 -> 2867
13:28:13:801 -> 447
13:28:13:811 -> 1786
13:28:13:827 -> 664
13:28:13:831 -> 2511
13:28:13:841 -> 1585
13:28:13:851 -> 3088
13:28:13:863 -> 3186
13:28:13:871 -> 2205
13:28:13:881 -> 2463
13:28:13:891 -> 2735
13:28:13:901 -> 2123
13:28:13:911 -> 2809
13:28:13:921 -> 1652
13:28:13:932 -> 1508
13:28:13:943 -> 2897
13:28:13:952 -> 2187
13:28:13:962 -> 3003
13:28:13:972 -> 1739
13:28:13:982 -> 1761
13:28:13:992 -> 1136
13:28:14:002 -> 2469
13:28:14:012 -> 1476
13:28:14:022 -> 355
13:28:14:032 -> 775
13:28:14:042 -> 2870
13:28:14:052 -> 2323
13:28:14:062 -> 2147
13:28:14:072 -> 2031
13:28:14:082 -> 2824
13:28:14:097 -> 2593
13:28:14:128 -> 1982
13:28:14:130 -> 2250
13:28:14:130 -> 1912
13:28:14:132 -> 2347
13:28:14:142 -> 2901
13:28:14:152 -> 1566
13:28:14:163 -> 1602
13:28:14:172 -> 2574
13:28:14:183 -> 2080
13:28:14:193 -> 1684
13:28:14:203 -> 2225
13:28:14:213 -> 1806
13:28:14:224 -> 1686
13:28:14:233 -> 2443
13:28:14:243 -> 2281
13:28:14:253 -> 1430
13:28:14:263 -> 2363
13:28:14:282 -> 1417
13:28:14:284 -> 499
13:28:14:293 -> 2129
13:28:14:303 -> 2963
13:28:14:313 -> 2595
13:28:14:323 -> 1946
13:28:14:334 -> 1746
13:28:14:343 -> 2245
13:28:14:353 -> 1327
13:28:14:364 -> 2213
13:28:14:373 -> 1750
13:28:14:383 -> 2013
13:28:14:394 -> 2405
13:28:14:404 -> 2038
13:28:14:414 -> 2474
13:28:14:424 -> 26
13:28:14:434 -> 2761
13:28:14:444 -> 1090
13:28:14:454 -> 2493
13:28:14:464 -> 1782
13:28:14:474 -> 91
13:28:14:485 -> 1959
13:28:14:494 -> 3380
13:28:14:512 -> 1378
13:28:14:535 -> 2464
13:28:14:535 -> 2066
13:28:14:535 -> 2250
13:28:14:560 -> 1962
13:28:14:560 -> 1978
13:28:14:581 -> 2015
13:28:14:581 -> 2255
13:28:14:593 -> 2048
13:28:14:599 -> 2136
13:28:14:605 -> 1989
13:28:14:623 -> 2205
13:28:14:659 -> 2157
13:28:14:663 -> 1998
13:28:14:663 -> 2056
13:28:14:663 -> 2117
13:28:14:665 -> 2120
13:28:14:675 -> 2047
13:28:14:685 -> 2136
13:28:14:695 -> 2064
13:28:14:705 -> 2108
13:28:14:715 -> 2060
13:28:14:725 -> 2100
13:28:14:735 -> 2075
13:28:14:745 -> 2101
13:28:14:755 -> 2044
13:28:14:769 -> 2086
13:28:14:775 -> 2015
13:28:14:785 -> 2126
13:28:14:795 -> 2087
13:28:14:805 -> 2048
13:28:14:815 -> 2144
13:28:14:825 -> 2027
13:28:14:835 -> 2095
13:28:14:846 -> 2092
13:28:14:856 -> 2107
13:28:14:866 -> 2018
13:28:14:876 -> 2042
13:28:14:886 -> 1987
13:28:14:897 -> 2043
13:28:14:910 -> 2011
13:28:14:916 -> 2035
13:28:14:935 -> 2085
13:28:14:936 -> 2075
13:28:14:946 -> 1966
13:28:14:956 -> 2085
13:28:14:966 -> 2047
13:28:14:976 -> 2087
13:28:14:986 -> 2063
13:28:14:996 -> 2131
13:28:15:010 -> 2035
13:28:15:016 -> 2057
13:28:15:026 -> 2052
13:28:15:037 -> 2145
13:28:15:048 -> 1986
13:28:15:058 -> 2141
13:28:15:067 -> 2050
13:28:15:077 -> 2112
13:28:15:087 -> 2054
13:28:15:097 -> 1971
13:28:15:107 -> 2041
13:28:15:117 -> 2179
13:28:15:129 -> 1986
13:28:15:137 -> 2154
13:28:15:147 -> 2041
13:28:15:157 -> 2153
13:28:15:192 -> 2094
13:28:15:193 -> 2037
13:28:15:193 -> 2034
13:28:15:197 -> 2157
13:28:15:207 -> 2007
13:28:15:218 -> 2186
13:28:15:227 -> 1996
13:28:15:237 -> 2203
13:28:15:257 -> 1975
13:28:15:260 -> 2245
13:28:15:268 -> 2036
13:28:15:278 -> 2196
13:28:15:288 -> 1954
13:28:15:298 -> 2235
13:28:15:308 -> 1942
13:28:15:318 -> 2240
13:28:15:328 -> 1944
13:28:15:338 -> 2205
13:28:15:348 -> 1967
13:28:15:358 -> 2239
13:28:15:368 -> 1898
13:28:15:378 -> 2234
13:28:15:388 -> 1959
13:28:15:398 -> 2239
13:28:15:408 -> 1953
13:28:15:418 -> 2237
13:28:15:428 -> 1938
13:28:15:438 -> 2236
13:28:15:448 -> 1944
13:28:15:458 -> 2247
13:28:15:480 -> 1852
13:28:15:481 -> 2201
13:28:15:488 -> 1945
13:28:15:501 -> 2229
13:28:15:508 -> 1929
13:28:15:518 -> 2201
13:28:15:528 -> 1934
13:28:15:539 -> 2191
13:28:15:549 -> 1887
13:28:15:559 -> 2229
13:28:15:569 -> 1895
13:28:15:579 -> 2164
13:28:15:589 -> 1948
13:28:15:599 -> 2143
13:28:15:609 -> 1936
13:28:15:619 -> 2149
13:28:15:629 -> 1949
13:28:15:639 -> 2180
13:28:15:649 -> 1958
13:28:15:659 -> 2169
13:28:15:669 -> 1988
13:28:15:681 -> 2163
13:28:15:689 -> 1962
13:28:15:730 -> 2182
13:28:15:731 -> 1981
13:28:15:731 -> 2157
13:28:15:731 -> 1987
13:28:15:740 -> 2134
13:28:15:760 -> 1950
13:28:15:762 -> 2173
13:28:15:770 -> 1989
13:28:15:781 -> 2194
13:28:15:790 -> 2003
13:28:15:800 -> 2135
13:28:15:810 -> 2022
13:28:15:820 -> 2163
13:28:15:830 -> 2011
13:28:15:841 -> 2180
13:28:15:850 -> 2051
13:28:15:860 -> 2166
13:28:15:870 -> 2046
13:28:15:880 -> 2151
13:28:15:890 -> 2051
13:28:15:901 -> 2156
13:28:15:910 -> 2048
13:28:15:923 -> 2145
13:28:15:930 -> 2007
13:28:15:940 -> 2146
13:28:15:951 -> 2042
13:28:15:966 -> 2141
13:28:15:971 -> 2043
13:28:15:981 -> 2145
13:28:15:991 -> 2047
13:28:16:001 -> 2157
13:28:16:011 -> 2037
13:28:16:021 -> 2152
13:28:16:031 -> 2016
13:28:16:041 -> 2148
13:28:16:051 -> 1981
13:28:16:061 -> 2134
13:28:16:071 -> 2031
13:28:16:081 -> 2105
13:28:16:091 -> 2054
13:28:16:101 -> 2111
13:28:16:111 -> 2046
13:28:16:121 -> 2105
13:28:16:132 -> 2070
13:28:16:141 -> 2110
13:28:16:151 -> 2073
13:28:16:161 -> 2104
13:28:16:172 -> 2059
13:28:16:182 -> 2104
13:28:16:192 -> 2111
13:28:16:202 -> 2065
13:28:16:212 -> 2105
13:28:16:222 -> 2083
13:28:16:259 -> 2111
13:28:16:260 -> 2084
13:28:16:260 -> 2108
13:28:16:262 -> 2093
13:28:16:272 -> 2100
13:28:16:282 -> 2103
13:28:16:292 -> 2071
13:28:16:305 -> 2053
13:28:16:312 -> 2091
13:28:16:322 -> 2022
13:28:16:333 -> 2082
13:28:16:342 -> 2029
13:28:16:353 -> 2099
13:28:16:362 -> 2029
13:28:16:372 -> 1995
13:28:16:382 -> 2007
13:28:16:392 -> 2103
13:28:16:402 -> 2067
13:28:16:413 -> 2033
13:28:16:423 -> 1997
13:28:16:433 -> 2147
13:28:16:443 -> 2007
13:28:16:453 -> 2147
13:28:16:463 -> 1972
13:28:16:481 -> 2067
13:28:16:504 -> 2008
13:28:16:504 -> 2066
13:28:16:504 -> 2073
13:28:16:513 -> 2140
13:28:16:540 -> 2104
13:28:16:540 -> 2069
13:28:16:552 -> 2045
13:28:16:553 -> 2093
13:28:16:573 -> 2245
13:28:16:581 -> 2025
13:28:16:583 -> 2160
13:28:16:593 -> 2154
13:28:16:604 -> 2202
13:28:16:614 -> 2095
13:28:16:623 -> 2190
13:28:16:634 -> 2082
13:28:16:644 -> 2146
13:28:16:661 -> 2024
13:28:16:664 -> 2110
13:28:16:674 -> 2151
13:28:16:685 -> 2089
13:28:16:694 -> 2024
13:28:16:704 -> 2049
13:28:16:714 -> 2085
13:28:16:724 -> 2148
13:28:16:734 -> 2095
13:28:16:744 -> 2022
13:28:16:754 -> 2122
13:28:16:785 -> 2078
13:28:16:786 -> 2008
13:28:16:786 -> 2116
13:28:16:794 -> 2162
13:28:16:805 -> 2098
13:28:16:814 -> 2064
13:28:16:824 -> 1929
13:28:16:835 -> 2089
13:28:16:845 -> 2062
13:28:16:854 -> 2212
13:28:16:865 -> 2008
13:28:16:878 -> 2089
13:28:16:885 -> 1904
13:28:16:895 -> 2107
13:28:16:905 -> 2089
13:28:16:915 -> 2002
13:28:16:925 -> 2051
13:28:16:935 -> 2177
13:28:16:945 -> 1982
13:28:16:955 -> 2115
13:28:16:966 -> 2190
13:28:16:975 -> 2111
13:28:16:985 -> 2050
13:28:16:995 -> 2147
13:28:17:005 -> 1878
13:28:17:016 -> 2040
13:28:17:025 -> 1845
13:28:17:035 -> 2256
13:28:17:045 -> 1535
13:28:17:055 -> 1980
13:28:17:066 -> 1869
13:28:17:075 -> 2104
13:28:17:086 -> 1991
13:28:17:096 -> 2261
13:28:17:114 -> 2012
13:28:17:117 -> 2391
13:28:17:126 -> 2069
13:28:17:136 -> 2480
13:28:17:147 -> 1739
13:28:17:156 -> 2024
13:28:17:166 -> 1857
13:28:17:176 -> 2313
13:28:17:186 -> 2163
13:28:17:196 -> 2005
13:28:17:206 -> 2109
13:28:17:216 -> 2173
13:28:17:226 -> 2367
13:28:17:236 -> 2147
13:28:17:249 -> 2165
13:28:17:261 -> 2653
13:28:17:266 -> 2399
13:28:17:276 -> 2274
13:28:17:309 -> 2014
13:28:17:310 -> 1994
13:28:17:310 -> 2336
13:28:17:318 -> 2436
13:28:17:327 -> 1766
13:28:17:337 -> 2573
13:28:17:347 -> 2003
13:28:17:357 -> 1443
13:28:17:377 -> 1737
13:28:17:379 -> 2217
13:28:17:388 -> 2162
13:28:17:397 -> 2792
13:28:17:407 -> 1663
13:28:17:417 -> 1963
13:28:17:427 -> 2354
13:28:17:438 -> 1807
13:28:17:447 -> 2314
13:28:17:457 -> 2058
13:28:17:467 -> 2342
13:28:17:477 -> 2404
13:28:17:487 -> 2002
13:28:17:497 -> 2947
13:28:17:507 -> 1886
13:28:17:517 -> 2428
13:28:17:527 -> 1466
13:28:17:538 -> 2441
13:28:17:548 -> 1798
13:28:17:558 -> 2333
13:28:17:568 -> 2086
13:28:17:578 -> 2797
13:28:17:589 -> 2162
13:28:17:598 -> 2461
13:28:17:614 -> 2231
13:28:17:618 -> 2546
13:28:17:628 -> 1425
13:28:17:638 -> 2007
13:28:17:648 -> 1942
13:28:17:658 -> 2599
13:28:17:669 -> 2005
13:28:17:678 -> 1944
13:28:17:688 -> 1934
13:28:17:699 -> 1980
13:28:17:708 -> 2599
13:28:17:718 -> 1619
13:28:17:728 -> 2807
13:28:17:738 -> 1821
13:28:17:748 -> 2651
13:28:17:758 -> 1883
13:28:17:769 -> 2518
13:28:17:779 -> 2272
13:28:17:789 -> 1561
13:28:17:799 -> 2396
13:28:17:833 -> 1069
13:28:17:834 -> 2606
13:28:17:834 -> 2551
13:28:17:839 -> 2806
13:28:17:850 -> 1919
13:28:17:859 -> 2412
13:28:17:869 -> 2428
13:28:17:880 -> 2014
13:28:17:889 -> 1874
13:28:17:908 -> 2084
13:28:17:909 -> 2082
13:28:17:919 -> 2804
13:28:17:929 -> 2053
13:28:17:939 -> 1887
13:28:17:949 -> 1972
13:28:17:959 -> 2532
13:28:17:970 -> 2256
13:28:17:980 -> 1609
13:28:17:989 -> 2985
13:28:18:000 -> 2546
13:28:18:010 -> 1817
13:28:18:020 -> 1735
13:28:18:030 -> 910
13:28:18:040 -> 2426
13:28:18:050 -> 1791
13:28:18:060 -> 2771
13:28:18:070 -> 2647
13:28:18:080 -> 1715
13:28:18:091 -> 1340
13:28:18:100 -> 1757
13:28:18:114 -> 2244
13:28:18:120 -> 2264
13:28:18:130 -> 2458
13:28:18:142 -> 1869
13:28:18:150 -> 1256
13:28:18:160 -> 2213
13:28:18:170 -> 2368
13:28:18:180 -> 1858
13:28:18:190 -> 2967
13:28:18:201 -> 2611
13:28:18:210 -> 2320
13:28:18:221 -> 2361
13:28:18:231 -> 1785
13:28:18:241 -> 1972
13:28:18:251 -> 2496
13:28:18:262 -> 2197
13:28:18:271 -> 1750
13:28:18:282 -> 2655
13:28:18:291 -> 2409
13:28:18:301 -> 1375
13:28:18:311 -> 1993
13:28:18:321 -> 2126
13:28:18:331 -> 1887
13:28:18:364 -> 1583
13:28:18:366 -> 2733
13:28:18:366 -> 1771
13:28:18:371 -> 1780
13:28:18:389 -> 2355
13:28:18:391 -> 1964
13:28:18:403 -> 1028
13:28:18:412 -> 2011
13:28:18:421 -> 1898
13:28:18:432 -> 2548
13:28:18:464 -> 1758
13:28:18:487 -> 1952
13:28:18:487 -> 2676
13:28:18:487 -> 2116
13:28:18:487 -> 2053
13:28:18:512 -> 2330
13:28:18:512 -> 1929
13:28:18:512 -> 1777
13:28:18:537 -> 2237
13:28:18:537 -> 244
13:28:18:546 -> 2132
13:28:18:552 -> 2282
13:28:18:575 -> 1882
13:28:18:575 -> 1273
13:28:18:596 -> 2584
13:28:18:596 -> 1826
13:28:18:610 -> 2136
13:28:18:612 -> 1735
13:28:18:622 -> 2108
13:28:18:632 -> 1039
13:28:18:642 -> 1431
13:28:18:654 -> 1650
13:28:18:662 -> 1448
13:28:18:672 -> 2691
13:28:18:683 -> 2018
13:28:18:693 -> 2006
13:28:18:703 -> 2158
13:28:18:713 -> 2411
13:28:18:729 -> 1732
13:28:18:734 -> 2811
13:28:18:743 -> 2158
13:28:18:754 -> 2210
13:28:18:763 -> 2057
13:28:18:773 -> 1927
13:28:18:783 -> 1933
13:28:18:793 -> 2199
13:28:18:803 -> 2269
13:28:18:813 -> 2378
13:28:18:823 -> 2168
13:28:18:833 -> 2773
13:28:18:845 -> 2176
13:28:18:853 -> 2545
13:28:18:892 -> 2199
13:28:18:895 -> 2473
13:28:18:895 -> 3000
13:28:18:896 -> 2381
13:28:18:904 -> 2090
13:28:18:913 -> 2047
13:28:18:924 -> 1031
13:28:18:934 -> 3243
13:28:18:944 -> 2378
13:28:18:954 -> 2369
13:28:18:964 -> 2773
13:28:18:976 -> 2513
13:28:18:984 -> 1610
13:28:18:999 -> 2204
13:28:19:004 -> 2181
13:28:19:014 -> 2027
13:28:19:024 -> 2068
13:28:19:034 -> 2319
13:28:19:045 -> 2092
13:28:19:056 -> 2040
13:28:19:064 -> 1948
13:28:19:074 -> 2192
13:28:19:085 -> 1969
13:28:19:094 -> 2082
13:28:19:105 -> 2033
13:28:19:115 -> 2194
13:28:19:124 -> 1941
13:28:19:134 -> 2132
13:28:19:145 -> 1976
13:28:19:155 -> 2123
13:28:19:166 -> 1989
13:28:19:175 -> 2100
13:28:19:188 -> 1955
13:28:19:195 -> 2117
13:28:19:205 -> 1991
13:28:19:215 -> 2135
13:28:19:225 -> 1959
13:28:19:235 -> 2149
13:28:19:245 -> 1957
13:28:19:255 -> 2164
13:28:19:265 -> 1927
13:28:19:275 -> 2242
13:28:19:285 -> 1969
13:28:19:295 -> 2222
13:28:19:305 -> 1949
13:28:19:315 -> 2225
13:28:19:325 -> 1956
13:28:19:336 -> 2221
13:28:19:345 -> 1931
13:28:19:355 -> 2241
13:28:19:366 -> 1963
13:28:19:376 -> 2200
13:28:19:386 -> 1935
13:28:19:419 -> 2195
13:28:19:420 -> 1972
13:28:19:420 -> 2152
13:28:19:426 -> 1916
13:28:19:437 -> 2230
13:28:19:446 -> 1899
13:28:19:456 -> 2194
13:28:19:466 -> 1961
13:28:19:476 -> 2249
13:28:19:486 -> 1957
13:28:19:496 -> 2211
13:28:19:506 -> 1958
13:28:19:517 -> 2141
13:28:19:526 -> 1949
13:28:19:536 -> 2195
13:28:19:546 -> 1956
13:28:19:556 -> 2125
13:28:19:567 -> 1999
13:28:19:576 -> 2185
13:28:19:586 -> 1961
13:28:19:597 -> 2085
13:28:19:607 -> 2004
13:28:19:617 -> 2214
13:28:19:627 -> 1961
13:28:19:637 -> 2187
13:28:19:647 -> 1974
13:28:19:657 -> 2224
13:28:19:668 -> 1902
13:28:19:677 -> 2226
13:28:19:687 -> 1995
13:28:19:697 -> 2221
13:28:19:710 -> 1988
13:28:19:717 -> 2172
13:28:19:727 -> 1999
13:28:19:737 -> 2168
13:28:19:747 -> 2036
13:28:19:760 -> 2143
13:28:19:767 -> 1966
13:28:19:777 -> 2135
13:28:19:787 -> 2026
13:28:19:797 -> 2173
13:28:19:807 -> 2016
13:28:19:817 -> 2142
13:28:19:828 -> 2018
13:28:19:838 -> 2137
13:28:19:848 -> 2014
13:28:19:858 -> 2117
13:28:19:868 -> 1982
13:28:19:878 -> 2122
13:28:19:888 -> 2042
13:28:19:903 -> 2102
13:28:19:908 -> 2044
13:28:19:943 -> 2156
13:28:19:945 -> 2045
13:28:19:945 -> 2133
13:28:19:948 -> 2061
13:28:19:959 -> 2106
13:28:19:968 -> 1965
13:28:19:979 -> 2122
13:28:19:988 -> 2074
13:28:19:998 -> 2136
13:28:20:008 -> 2037
13:28:20:019 -> 2143
13:28:20:032 -> 2035
13:28:20:038 -> 2148
13:28:20:049 -> 2024
13:28:20:059 -> 2062
13:28:20:071 -> 2073
13:28:20:079 -> 2134
13:28:20:089 -> 2061
13:28:20:099 -> 2118
13:28:20:109 -> 2078
13:28:20:119 -> 2131
13:28:20:129 -> 2048
13:28:20:139 -> 2119
13:28:20:149 -> 2025
13:28:20:159 -> 2076
13:28:20:169 -> 2069
13:28:20:184 -> 2100
13:28:20:189 -> 2076
13:28:20:199 -> 2076
13:28:20:236 -> 2108
13:28:20:241 -> 2083
13:28:20:241 -> 2079
13:28:20:241 -> 2090
13:28:20:273 -> 2070
13:28:20:273 -> 2085
13:28:20:273 -> 2093
13:28:20:280 -> 2046
13:28:20:312 -> 2082
13:28:20:312 -> 2066
13:28:20:312 -> 2018
13:28:20:328 -> 2076
13:28:20:330 -> 2066
13:28:20:341 -> 2055
13:28:20:350 -> 2087
13:28:20:361 -> 2062
13:28:20:370 -> 2098
13:28:20:380 -> 2075
13:28:20:390 -> 2105
13:28:20:402 -> 2037
13:28:20:411 -> 2164
13:28:20:420 -> 2008
13:28:20:430 -> 2188
13:28:20:440 -> 2011
13:28:20:472 -> 2129
13:28:20:474 -> 2024
13:28:20:474 -> 2154
13:28:20:480 -> 2016
13:28:20:491 -> 2136
13:28:20:501 -> 2040
13:28:20:511 -> 2139
13:28:20:522 -> 2031
13:28:20:531 -> 2086
13:28:20:541 -> 2113
13:28:20:551 -> 2066
13:28:20:561 -> 2115
13:28:20:571 -> 2070
13:28:20:581 -> 2112
13:28:20:591 -> 2056
13:28:20:608 -> 2133
13:28:20:611 -> 2055
13:28:20:621 -> 2061
13:28:20:631 -> 2075
13:28:20:641 -> 2098
13:28:20:651 -> 2055
13:28:20:663 -> 2122
13:28:20:671 -> 2078
13:28:20:682 -> 2123
13:28:20:692 -> 2041
13:28:20:702 -> 2105
13:28:20:711 -> 2094
13:28:20:722 -> 2091
13:28:20:732 -> 2080
13:28:20:742 -> 2098
13:28:20:757 -> 2094
13:28:20:762 -> 2074
13:28:20:772 -> 2078
13:28:20:783 -> 2080
13:28:20:793 -> 2068
13:28:20:802 -> 2066
13:28:20:812 -> 2072
13:28:20:822 -> 2115
13:28:20:832 -> 2090
13:28:20:842 -> 2026
13:28:20:852 -> 2099
13:28:20:862 -> 2072
13:28:20:872 -> 2105
13:28:20:882 -> 2090
13:28:20:892 -> 2075
13:28:20:902 -> 2079
13:28:20:912 -> 2064
13:28:20:922 -> 2046
13:28:20:933 -> 2082
13:28:20:942 -> 2013
13:28:20:959 -> 2085
13:28:20:963 -> 2035
13:28:20:997 -> 2106
13:28:20:999 -> 2035
13:28:20:999 -> 2100
13:28:21:003 -> 2011
13:28:21:015 -> 2102
13:28:21:024 -> 2017
13:28:21:033 -> 2159
13:28:21:043 -> 1978
13:28:21:054 -> 2163
13:28:21:063 -> 1980
13:28:21:074 -> 2141
13:28:21:083 -> 2012
13:28:21:093 -> 2147
13:28:21:103 -> 1985
13:28:21:116 -> 2147
13:28:21:123 -> 1990
13:28:21:133 -> 2140
13:28:21:143 -> 2022
13:28:21:153 -> 2175
13:28:21:163 -> 1996
13:28:21:173 -> 2158
13:28:21:184 -> 2016
13:28:21:194 -> 2168
13:28:21:204 -> 2004
13:28:21:228 -> 2226
13:28:21:230 -> 1975
13:28:21:234 -> 2177
13:28:21:244 -> 1993
13:28:21:253 -> 2204
13:28:21:263 -> 1962
13:28:21:273 -> 2228
13:28:21:283 -> 1976
13:28:21:293 -> 2232
13:28:21:304 -> 1959
13:28:21:313 -> 2240
13:28:21:323 -> 1921
13:28:21:333 -> 2230
13:28:21:343 -> 1942
13:28:21:354 -> 2242
13:28:21:364 -> 1926
13:28:21:375 -> 2236
13:28:21:384 -> 1944
13:28:21:394 -> 2227
13:28:21:404 -> 1910
13:28:21:414 -> 2247
13:28:21:424 -> 1897
13:28:21:434 -> 2222
13:28:21:444 -> 1936
13:28:21:463 -> 2220
13:28:21:465 -> 1917
13:28:21:476 -> 2221
13:28:21:484 -> 1935
13:28:21:494 -> 2195
13:28:21:528 -> 1920
13:28:21:529 -> 2186
13:28:21:529 -> 1949
13:28:21:535 -> 2154
13:28:21:544 -> 1919
13:28:21:555 -> 2127
13:28:21:564 -> 1914
13:28:21:574 -> 2198
13:28:21:585 -> 1917
13:28:21:595 -> 2142
13:28:21:605 -> 1924
13:28:21:615 -> 2131
13:28:21:629 -> 1939
13:28:21:635 -> 2155
13:28:21:649 -> 1920
13:28:21:655 -> 2143
13:28:21:666 -> 1940
13:28:21:675 -> 2165
13:28:21:705 -> 1868
13:28:21:705 -> 2193
13:28:21:734 -> 1978
13:28:21:734 -> 2166
13:28:21:734 -> 1965
13:28:21:745 -> 2148
13:28:21:794 -> 1981
13:28:21:794 -> 2149
13:28:21:794 -> 1976
13:28:21:794 -> 2144
13:28:21:794 -> 1986
13:28:21:799 -> 2115
13:28:21:805 -> 1975
13:28:21:819 -> 2139
13:28:21:826 -> 1976
13:28:21:836 -> 2134
13:28:21:846 -> 1998
13:28:21:856 -> 2105
13:28:21:866 -> 2046
13:28:21:878 -> 2126
13:28:21:886 -> 2046
13:28:21:896 -> 2143
13:28:21:906 -> 2045
13:28:21:916 -> 2132
13:28:21:926 -> 2063
13:28:21:936 -> 2136
13:28:21:946 -> 2042
13:28:21:956 -> 2164
13:28:21:966 -> 2042
13:28:21:977 -> 2152
13:28:21:986 -> 2078
13:28:21:997 -> 2163
13:28:22:006 -> 2089
13:28:22:016 -> 2102
13:28:22:062 -> 2090
13:28:22:067 -> 2122
13:28:22:067 -> 2083
13:28:22:067 -> 2126
13:28:22:067 -> 2089
13:28:22:077 -> 2144
13:28:22:088 -> 2085
13:28:22:097 -> 2098
13:28:22:107 -> 2127
13:28:22:117 -> 2079
13:28:22:127 -> 2107
13:28:22:138 -> 2102
13:28:22:147 -> 2089
13:28:22:157 -> 2113
13:28:22:167 -> 2081
13:28:22:177 -> 2111
13:28:22:187 -> 2130
13:28:22:197 -> 2010
13:28:22:208 -> 2049
13:28:22:217 -> 2059
13:28:22:227 -> 2102
13:28:22:237 -> 2073
13:28:22:248 -> 2055
13:28:22:257 -> 2056
13:28:22:268 -> 2058
13:28:22:278 -> 2069
13:28:22:290 -> 2074
13:28:22:299 -> 2096
13:28:22:308 -> 2137
13:28:22:318 -> 2023
13:28:22:328 -> 2102
13:28:22:338 -> 2112
13:28:22:349 -> 2124
13:28:22:358 -> 2145
13:28:22:368 -> 2087
13:28:22:379 -> 2144
13:28:22:388 -> 2150
13:28:22:398 -> 2086
13:28:22:408 -> 2172
13:28:22:424 -> 2070
13:28:22:428 -> 2165
13:28:22:438 -> 2090
13:28:22:449 -> 2142
13:28:22:458 -> 2003
13:28:22:471 -> 2143
13:28:22:480 -> 2169
13:28:22:490 -> 2026
13:28:22:499 -> 1949
13:28:22:509 -> 2370
13:28:22:519 -> 1955
13:28:22:529 -> 2139
13:28:22:539 -> 1618
13:28:22:549 -> 2056
13:28:22:559 -> 2134
13:28:22:589 -> 2131
13:28:22:590 -> 2057
13:28:22:590 -> 2229
13:28:22:599 -> 2098
13:28:22:610 -> 2124
13:28:22:619 -> 1969
13:28:22:629 -> 2063
13:28:22:639 -> 1961
13:28:22:649 -> 2052
13:28:22:659 -> 2350
13:28:22:670 -> 1927
13:28:22:679 -> 2172
13:28:22:689 -> 2027
13:28:22:699 -> 2090
13:28:22:709 -> 2169
13:28:22:719 -> 2068
13:28:22:730 -> 1334
13:28:22:740 -> 2296
13:28:22:753 -> 2321
13:28:22:760 -> 1948
13:28:22:770 -> 1601
13:28:22:780 -> 2517
13:28:22:790 -> 2136
13:28:22:800 -> 2409
13:28:22:810 -> 2712
13:28:22:820 -> 2159
13:28:22:830 -> 2065
13:28:22:840 -> 2662
13:28:22:851 -> 2274
13:28:22:860 -> 2478
13:28:22:870 -> 1023
13:28:22:881 -> 2188
13:28:22:890 -> 2234
13:28:22:900 -> 2302
13:28:22:910 -> 1943
13:28:22:923 -> 2545
13:28:22:931 -> 1818
13:28:22:940 -> 2013
13:28:22:953 -> 1668
13:28:22:961 -> 2680
13:28:22:971 -> 2752
13:28:22:981 -> 1859
13:28:22:991 -> 1784
13:28:23:001 -> 2934
13:28:23:011 -> 2607
13:28:23:025 -> 2386
13:28:23:032 -> 1581
13:28:23:041 -> 2221
13:28:23:051 -> 2240
13:28:23:061 -> 1410
13:28:23:073 -> 1877
13:28:23:081 -> 2576
13:28:23:113 -> 2096
13:28:23:116 -> 2101
13:28:23:116 -> 2391
13:28:23:121 -> 2031
13:28:23:131 -> 1435
13:28:23:141 -> 2332
13:28:23:151 -> 1825
13:28:23:163 -> 1183
13:28:23:172 -> 2471
13:28:23:182 -> 2212
13:28:23:192 -> 595
13:28:23:224 -> 1834
13:28:23:238 -> 2698
13:28:23:238 -> 2222
13:28:23:238 -> 1611
13:28:23:258 -> 2623
13:28:23:258 -> 2362
13:28:23:274 -> 1947
13:28:23:274 -> 1973
13:28:23:289 -> 2023
13:28:23:292 -> 2843
13:28:23:315 -> 2129
13:28:23:321 -> 2931
13:28:23:322 -> 1614
13:28:23:332 -> 1490
13:28:23:347 -> 808
13:28:23:352 -> 2098
13:28:23:362 -> 1019
13:28:23:372 -> 3140
13:28:23:383 -> 1918
13:28:23:396 -> 2647
13:28:23:402 -> 1729
13:28:23:413 -> 2919
13:28:23:423 -> 2552
13:28:23:434 -> 2562
13:28:23:443 -> 1451
13:28:23:453 -> 3068
13:28:23:463 -> 2720
13:28:23:473 -> 3308
13:28:23:483 -> 1979
13:28:23:493 -> 2222
13:28:23:503 -> 1840
13:28:23:513 -> 2840
13:28:23:523 -> 2485
13:28:23:534 -> 2616
13:28:23:543 -> 2104
13:28:23:554 -> 1005
13:28:23:563 -> 2184
13:28:23:574 -> 2273
13:28:23:583 -> 1823
13:28:23:593 -> 2529
13:28:23:604 -> 1655
13:28:23:657 -> 2545
13:28:23:659 -> 1768
13:28:23:659 -> 3095
13:28:23:659 -> 2090
13:28:23:659 -> 2161
13:28:23:664 -> 2293
13:28:23:677 -> 1948
13:28:23:684 -> 1096
13:28:23:694 -> 2750
13:28:23:704 -> 1855
13:28:23:714 -> 2635
13:28:23:724 -> 1806
13:28:23:734 -> 2685
13:28:23:744 -> 1563
13:28:23:754 -> 2078
13:28:23:765 -> 2197
13:28:23:774 -> 2081
13:28:23:785 -> 1702
13:28:23:794 -> 2043
13:28:23:804 -> 1609
13:28:23:815 -> 2502
13:28:23:824 -> 2212
13:28:23:835 -> 2004
13:28:23:844 -> 2686
13:28:23:854 -> 2786
13:28:23:867 -> 2600
13:28:23:875 -> 2012
13:28:23:885 -> 2219
13:28:23:897 -> 2707
13:28:23:905 -> 1995
13:28:23:915 -> 2426
13:28:23:925 -> 2345
13:28:23:935 -> 2345
13:28:23:946 -> 2076
13:28:23:955 -> 1753
13:28:23:965 -> 1930
13:28:23:975 -> 1588
13:28:23:985 -> 1248
13:28:23:995 -> 2108
13:28:24:005 -> 1935
13:28:24:015 -> 1875
13:28:24:025 -> 2030
13:28:24:035 -> 2839
13:28:24:046 -> 2694
13:28:24:055 -> 2625
13:28:24:065 -> 1829
13:28:24:075 -> 2208
13:28:24:085 -> 1794
13:28:24:112 -> 1685
13:28:24:114 -> 1780
13:28:24:116 -> 2555
13:28:24:126 -> 1632
13:28:24:136 -> 2467
13:28:24:146 -> 2419
13:28:24:181 -> 1419
13:28:24:182 -> 1325
13:28:24:182 -> 3164
13:28:24:190 -> 1963
13:28:24:196 -> 2342
13:28:24:206 -> 889
13:28:24:216 -> 1622
13:28:24:226 -> 2431
13:28:24:236 -> 2502
13:28:24:246 -> 1933
13:28:24:257 -> 2154
13:28:24:266 -> 1566
13:28:24:280 -> 1968
13:28:24:286 -> 1663
13:28:24:297 -> 2232
13:28:24:306 -> 2142
13:28:24:316 -> 1862
13:28:24:326 -> 1581
13:28:24:337 -> 2180
13:28:24:347 -> 2364
13:28:24:357 -> 1849
13:28:24:367 -> 1534
13:28:24:377 -> 1985
13:28:24:387 -> 1749
13:28:24:402 -> 2123
13:28:24:407 -> 2256
13:28:24:418 -> 1240
13:28:24:428 -> 2466
13:28:24:438 -> 1946
13:28:24:448 -> 2214
13:28:24:457 -> 2057
13:28:24:467 -> 2205
13:28:24:477 -> 1944
13:28:24:487 -> 2116
13:28:24:497 -> 2018
13:28:24:510 -> 2166
13:28:24:517 -> 2028
13:28:24:527 -> 2156
13:28:24:537 -> 2054
13:28:24:548 -> 2089
13:28:24:558 -> 2022
13:28:24:567 -> 2149
13:28:24:579 -> 2013
13:28:24:588 -> 2101
13:28:24:598 -> 2049
13:28:24:608 -> 2074
13:28:24:618 -> 2108
13:28:24:628 -> 2103
13:28:24:639 -> 2113
13:28:24:648 -> 2036
13:28:24:658 -> 2042
13:28:24:668 -> 2105
13:28:24:678 -> 2104
13:28:24:712 -> 2060
13:28:24:714 -> 2138
13:28:24:714 -> 2093
13:28:24:721 -> 2118
13:28:24:728 -> 2084
13:28:24:738 -> 2108
13:28:24:748 -> 2069
13:28:24:758 -> 2169
13:28:24:768 -> 1999
13:28:24:780 -> 2133
13:28:24:789 -> 2091
13:28:24:799 -> 2048
13:28:24:810 -> 2109
13:28:24:827 -> 2049
13:28:24:857 -> 2106
13:28:24:857 -> 2035
13:28:24:857 -> 2060
13:28:24:892 -> 2143
13:28:24:892 -> 2076
13:28:24:892 -> 2065
13:28:24:892 -> 2064
13:28:24:909 -> 2087
13:28:24:909 -> 2096
13:28:24:927 -> 2089
13:28:24:945 -> 2091
13:28:24:945 -> 2087
13:28:24:950 -> 2095
13:28:24:969 -> 2108
13:28:24:985 -> 2033
13:28:24:985 -> 2063
13:28:24:991 -> 2064
13:28:24:999 -> 2078
13:28:25:010 -> 2063
13:28:25:021 -> 2097
13:28:25:030 -> 2120
13:28:25:040 -> 2081
13:28:25:050 -> 2092
13:28:25:063 -> 2028
13:28:25:070 -> 2119
13:28:25:080 -> 2016
13:28:25:090 -> 2151
13:28:25:100 -> 2050
13:28:25:110 -> 2105
13:28:25:120 -> 2021
13:28:25:131 -> 2114
13:28:25:140 -> 2008
13:28:25:150 -> 2161
13:28:25:160 -> 1967
13:28:25:171 -> 2090
13:28:25:180 -> 2090
13:28:25:190 -> 2125
13:28:25:200 -> 2002
13:28:25:252 -> 2077
13:28:25:255 -> 2023
13:28:25:255 -> 2134
13:28:25:255 -> 2010
13:28:25:255 -> 2087
13:28:25:261 -> 2011
13:28:25:271 -> 2210
13:28:25:281 -> 2008
13:28:25:292 -> 2114
13:28:25:301 -> 2005
13:28:25:311 -> 2194
13:28:25:321 -> 1974
13:28:25:331 -> 2170
13:28:25:341 -> 1962
13:28:25:351 -> 2190
13:28:25:361 -> 1966
13:28:25:372 -> 2240
13:28:25:381 -> 1933
13:28:25:391 -> 2247
13:28:25:401 -> 1858
13:28:25:412 -> 2242
13:28:25:421 -> 1976
13:28:25:431 -> 2205
13:28:25:441 -> 1963
13:28:25:451 -> 2265
13:28:25:462 -> 1940
13:28:25:473 -> 2216
13:28:25:482 -> 1829
13:28:25:492 -> 2230
13:28:25:502 -> 1853
13:28:25:512 -> 2232
13:28:25:522 -> 1945
13:28:25:532 -> 2192
13:28:25:542 -> 1932
13:28:25:552 -> 2205
13:28:25:562 -> 1943
13:28:25:572 -> 2134
13:28:25:582 -> 1956
13:28:25:592 -> 2193
13:28:25:606 -> 1903
13:28:25:612 -> 2178
13:28:25:622 -> 1917
13:28:25:632 -> 2163
13:28:25:642 -> 1931
13:28:25:652 -> 2148
13:28:25:662 -> 1990
13:28:25:672 -> 2147
13:28:25:682 -> 1977
13:28:25:693 -> 2141
13:28:25:702 -> 1956
13:28:25:721 -> 2169
13:28:25:723 -> 1975
13:28:25:733 -> 2106
13:28:25:743 -> 1956
13:28:25:777 -> 2182
13:28:25:778 -> 1992
13:28:25:778 -> 2155
13:28:25:783 -> 1979
13:28:25:793 -> 2200
13:28:25:804 -> 1953
13:28:25:815 -> 2188
13:28:25:823 -> 2020
13:28:25:834 -> 2154
13:28:25:843 -> 1986
13:28:25:855 -> 2165
13:28:25:863 -> 1990
13:28:25:874 -> 2157
13:28:25:883 -> 1990
13:28:25:893 -> 2156
13:28:25:904 -> 2001
13:28:25:914 -> 2177
13:28:25:924 -> 2016
13:28:25:934 -> 2159
13:28:25:944 -> 2034
13:28:25:954 -> 2148
13:28:25:964 -> 2032
13:28:25:977 -> 2164
13:28:25:984 -> 2032
13:28:25:994 -> 2154
13:28:26:004 -> 2034
13:28:26:014 -> 2164
13:28:26:024 -> 2024
13:28:26:034 -> 2148
13:28:26:044 -> 2085
13:28:26:054 -> 2104
13:28:26:064 -> 2086
13:28:26:074 -> 2144
13:28:26:084 -> 2074
13:28:26:094 -> 2118
13:28:26:104 -> 2022
13:28:26:114 -> 2085
13:28:26:126 -> 2089
13:28:26:134 -> 2122
13:28:26:144 -> 2070
13:28:26:154 -> 2077
13:28:26:165 -> 2081
13:28:26:175 -> 2095
13:28:26:185 -> 2086
13:28:26:195 -> 2070
13:28:26:205 -> 2061
13:28:26:215 -> 2093
13:28:26:225 -> 2081
13:28:26:235 -> 2070
13:28:26:245 -> 2009
13:28:26:358 -> 2066
13:28:26:365 -> 2035
13:28:26:365 -> 2067
13:28:26:365 -> 2060
13:28:26:365 -> 2051
13:28:26:365 -> 2086
13:28:26:365 -> 2059
13:28:26:365 -> 2041
13:28:26:365 -> 2056
13:28:26:365 -> 2062
13:28:26:365 -> 2057
13:28:26:379 -> 2076
13:28:26:379 -> 2075
13:28:26:392 -> 2065
13:28:26:395 -> 2068
13:28:26:406 -> 2066
13:28:26:416 -> 2057
13:28:26:426 -> 2035
13:28:26:436 -> 2064
13:28:26:446 -> 2091
13:28:26:456 -> 2033
13:28:26:466 -> 2124
13:28:26:476 -> 2043
13:28:26:486 -> 2132
13:28:26:496 -> 1999
13:28:26:506 -> 2102
13:28:26:516 -> 2007
13:28:26:537 -> 2118
13:28:26:538 -> 2007
13:28:26:547 -> 2132
13:28:26:562 -> 2027
13:28:26:566 -> 2124
13:28:26:577 -> 2030
13:28:26:587 -> 2124
13:28:26:598 -> 2055
13:28:26:607 -> 2097
13:28:26:617 -> 2080
13:28:26:627 -> 2098
13:28:26:637 -> 2085
13:28:26:647 -> 2092
13:28:26:657 -> 2108
13:28:26:667 -> 2077
13:28:26:677 -> 2091
13:28:26:688 -> 2123
13:28:26:697 -> 2104
13:28:26:707 -> 2088
13:28:26:717 -> 2135
13:28:26:727 -> 2055
13:28:26:738 -> 2102
13:28:26:747 -> 2082
13:28:26:757 -> 2121
13:28:26:767 -> 2074
13:28:26:777 -> 2122
13:28:26:787 -> 2058
13:28:26:798 -> 2104
13:28:26:807 -> 2110
13:28:26:817 -> 2030
13:28:26:828 -> 2158
13:28:26:838 -> 2024
13:28:26:848 -> 2151
13:28:26:885 -> 2060
13:28:26:889 -> 2132
13:28:26:889 -> 2053
13:28:26:889 -> 2099
13:28:26:898 -> 2098
13:28:26:908 -> 2068
13:28:26:918 -> 2076
13:28:26:928 -> 2086
13:28:26:938 -> 2069
13:28:26:948 -> 2109
13:28:26:958 -> 2103
13:28:26:968 -> 2074
13:28:26:978 -> 2097
13:28:26:988 -> 2109
13:28:26:999 -> 2045
13:28:27:009 -> 2099
13:28:27:020 -> 2047
13:28:27:028 -> 2141
13:28:27:046 -> 2063
13:28:27:048 -> 2112
13:28:27:059 -> 2023
13:28:27:069 -> 2138
13:28:27:079 -> 2029
13:28:27:089 -> 2129
13:28:27:099 -> 2017
13:28:27:111 -> 2112
13:28:27:119 -> 1986
13:28:27:129 -> 2133
13:28:27:139 -> 2009
13:28:27:149 -> 2142
13:28:27:159 -> 1996
13:28:27:169 -> 2129
13:28:27:179 -> 2018
13:28:27:189 -> 2145
13:28:27:199 -> 2026
13:28:27:209 -> 2126
13:28:27:219 -> 1980
13:28:27:229 -> 2154
13:28:27:239 -> 2013
13:28:27:249 -> 2145
13:28:27:259 -> 1995
13:28:27:269 -> 2163
13:28:27:279 -> 2019
13:28:27:293 -> 2170
13:28:27:299 -> 1999
13:28:27:310 -> 2164
13:28:27:320 -> 1978
13:28:27:330 -> 2213
13:28:27:340 -> 1989
13:28:27:350 -> 2256
13:28:27:360 -> 1981
13:28:27:379 -> 2235
13:28:27:381 -> 1961
13:28:27:416 -> 2231
13:28:27:418 -> 1940
13:28:27:418 -> 2239
13:28:27:420 -> 1974
13:28:27:431 -> 2190
13:28:27:440 -> 1987
13:28:27:450 -> 2225
13:28:27:461 -> 1971
13:28:27:470 -> 2224
13:28:27:481 -> 1977
13:28:27:490 -> 2188
13:28:27:501 -> 1970
13:28:27:510 -> 2210
13:28:27:520 -> 1986
13:28:27:531 -> 2220
13:28:27:545 -> 1966
13:28:27:551 -> 2175
13:28:27:561 -> 1972
13:28:27:571 -> 2173
13:28:27:581 -> 1966
13:28:27:591 -> 2161
13:28:27:601 -> 1948
13:28:27:611 -> 2172
13:28:27:621 -> 1939
13:28:27:634 -> 2165
13:28:27:641 -> 1952
13:28:27:651 -> 2152
13:28:27:661 -> 1933
13:28:27:671 -> 2142
13:28:27:682 -> 1945
13:28:27:691 -> 2122
13:28:27:702 -> 1954
13:28:27:718 -> 2108
13:28:27:735 -> 1922
13:28:27:735 -> 2175
13:28:27:753 -> 1899
13:28:27:753 -> 2150
13:28:27:772 -> 1928
13:28:27:772 -> 2108
13:28:27:782 -> 1991
13:28:27:798 -> 2163
13:28:27:815 -> 1941
13:28:27:815 -> 2150
13:28:27:822 -> 1980
13:28:27:832 -> 2142
13:28:27:842 -> 1935
13:28:27:852 -> 2114
13:28:27:862 -> 1832
13:28:27:879 -> 2089
13:28:27:882 -> 1965
13:28:27:896 -> 2117
13:28:27:903 -> 2010
13:28:27:912 -> 2086
13:28:27:950 -> 2025
13:28:27:951 -> 2023
13:28:27:951 -> 2008
13:28:27:952 -> 2187
13:28:27:963 -> 1986
13:28:27:973 -> 2108
13:28:27:983 -> 2020
13:28:27:993 -> 2096
13:28:28:003 -> 2050
13:28:28:013 -> 2241
13:28:28:023 -> 2026
13:28:28:033 -> 2147
13:28:28:043 -> 1991
13:28:28:053 -> 2099
13:28:28:063 -> 2007
13:28:28:073 -> 2166
13:28:28:083 -> 2220
13:28:28:093 -> 2016
13:28:28:103 -> 2001
13:28:28:120 -> 2152
13:28:28:123 -> 1811
13:28:28:133 -> 2201
13:28:28:143 -> 2097
13:28:28:153 -> 2210
13:28:28:163 -> 2048
13:28:28:173 -> 2202
13:28:28:184 -> 2293
13:28:28:193 -> 2161
13:28:28:204 -> 2028
13:28:28:214 -> 2148
13:28:28:224 -> 2337
13:28:28:234 -> 2289
13:28:28:244 -> 2106
13:28:28:254 -> 2312
13:28:28:264 -> 2079
13:28:28:274 -> 1364
13:28:28:284 -> 2033
13:28:28:294 -> 1989
13:28:28:306 -> 2071
13:28:28:314 -> 2473
13:28:28:324 -> 2227
13:28:28:334 -> 2143
13:28:28:344 -> 2609
13:28:28:354 -> 2095
13:28:28:367 -> 1191
13:28:28:374 -> 1967
13:28:28:385 -> 2191
13:28:28:394 -> 2236
13:28:28:404 -> 2113
13:28:28:415 -> 2311
13:28:28:424 -> 1860
13:28:28:434 -> 2249
13:28:28:445 -> 2245
13:28:28:480 -> 2379
13:28:28:481 -> 589
13:28:28:481 -> 2502
13:28:28:485 -> 2126
13:28:28:495 -> 2134
13:28:28:505 -> 1754
13:28:28:515 -> 2098
13:28:28:525 -> 1996
13:28:28:536 -> 2840
13:28:28:545 -> 1535
13:28:28:555 -> 2238
13:28:28:565 -> 1694
13:28:28:575 -> 1682
13:28:28:585 -> 2703
13:28:28:595 -> 1955
13:28:28:605 -> 1962
13:28:28:616 -> 2286
13:28:28:635 -> 2286
13:28:28:636 -> 2361
13:28:28:646 -> 2136
13:28:28:656 -> 2112
13:28:28:668 -> 2076
13:28:28:676 -> 2494
13:28:28:689 -> 1629
13:28:28:696 -> 2525
13:28:28:706 -> 708
13:28:28:716 -> 2403
13:28:28:727 -> 2150
13:28:28:736 -> 2823
13:28:28:746 -> 2533
13:28:28:757 -> 2707
13:28:28:766 -> 2602
13:28:28:776 -> 2272
13:28:28:786 -> 2030
13:28:28:797 -> 1503
13:28:28:806 -> 2004
13:28:28:817 -> 1960
13:28:28:826 -> 1937
13:28:28:838 -> 1248
13:28:28:848 -> 1982
13:28:28:856 -> 2511
13:28:28:866 -> 1950
13:28:28:877 -> 2065
13:28:28:886 -> 2177
13:28:28:897 -> 1981
13:28:28:907 -> 2169
13:28:28:917 -> 1996
13:28:28:927 -> 1360
13:28:28:937 -> 2156
13:28:28:948 -> 2044
13:28:28:957 -> 2490
13:28:28:968 -> 2070
13:28:28:977 -> 1804
13:28:29:009 -> 2144
13:28:29:011 -> 2450
13:28:29:011 -> 2114
13:28:29:017 -> 1804
13:28:29:027 -> 2026
13:28:29:038 -> 1993
13:28:29:047 -> 2015
13:28:29:057 -> 1546
13:28:29:067 -> 2157
13:28:29:077 -> 1939
13:28:29:099 -> 1744
13:28:29:100 -> 2015
13:28:29:107 -> 1550
13:28:29:118 -> 739
13:28:29:128 -> 2168
13:28:29:138 -> 2686
13:28:29:148 -> 2422
13:28:29:158 -> 2380
13:28:29:168 -> 1787
13:28:29:178 -> 1597
13:28:29:188 -> 2233
13:28:29:198 -> 2262
13:28:29:208 -> 1792
13:28:29:218 -> 2553
13:28:29:229 -> 1843
13:28:29:238 -> 2076
13:28:29:249 -> 2307
13:28:29:258 -> 1368
13:28:29:268 -> 2393
13:28:29:278 -> 2172
13:28:29:288 -> 2466
13:28:29:298 -> 2572
13:28:29:309 -> 2690
13:28:29:318 -> 1678
13:28:29:329 -> 2465
13:28:29:339 -> 1388
13:28:29:353 -> 1880
13:28:29:359 -> 1782
13:28:29:369 -> 2663
13:28:29:379 -> 2419
13:28:29:389 -> 1692
13:28:29:399 -> 2373
13:28:29:409 -> 2934
13:28:29:420 -> 2359
13:28:29:429 -> 2665
13:28:29:440 -> 1677
13:28:29:449 -> 1947
13:28:29:460 -> 2003
13:28:29:469 -> 2129
13:28:29:479 -> 1815
13:28:29:489 -> 1263
13:28:29:499 -> 2397
13:28:29:539 -> 2549
13:28:29:540 -> 2086
13:28:29:540 -> 1954
13:28:29:540 -> 2059
13:28:29:549 -> 2708
13:28:29:559 -> 349
13:28:29:594 -> 2617
13:28:29:606 -> 1724
13:28:29:606 -> 2405
13:28:29:606 -> 1494
13:28:29:653 -> 2743
13:28:29:653 -> 1651
13:28:29:653 -> 2107
13:28:29:653 -> 2042
13:28:29:653 -> 2491
13:28:29:682 -> 2300
13:28:29:682 -> 2023
13:28:29:682 -> 1648
13:28:29:690 -> 1870
13:28:29:710 -> 2578
13:28:29:719 -> 1092
13:28:29:722 -> 1504
13:28:29:730 -> 2798
13:28:29:742 -> 2247
13:28:29:750 -> 1841
13:28:29:760 -> 1284
13:28:29:770 -> 1831
13:28:29:780 -> 771
13:28:29:790 -> 2314
13:28:29:801 -> 1842
13:28:29:810 -> 1929
13:28:29:821 -> 2817
13:28:29:831 -> 2349
13:28:29:841 -> 1667
13:28:29:851 -> 2056
13:28:29:861 -> 1910
13:28:29:871 -> 1980
13:28:29:881 -> 2247
13:28:29:891 -> 2177
13:28:29:901 -> 2023
13:28:29:911 -> 2000
13:28:29:921 -> 2001
13:28:29:931 -> 2133
13:28:29:941 -> 2042
13:28:29:951 -> 2143
13:28:29:961 -> 1955
13:28:29:971 -> 2159
13:28:29:981 -> 2026
13:28:29:991 -> 2167
13:28:30:001 -> 2041
13:28:30:011 -> 2131
13:28:30:036 -> 2089
13:28:30:063 -> 2077
13:28:30:065 -> 2113
13:28:30:065 -> 2101
13:28:30:065 -> 2023
13:28:30:072 -> 2196
13:28:30:082 -> 2007
13:28:30:093 -> 2184
13:28:30:102 -> 1898
13:28:30:112 -> 2162
13:28:30:122 -> 2089
13:28:30:132 -> 2107
13:28:30:142 -> 2101
13:28:30:152 -> 2094
13:28:30:163 -> 2010
13:28:30:172 -> 2110
13:28:30:182 -> 2068
13:28:30:192 -> 2083
13:28:30:202 -> 2107
13:28:30:213 -> 2054
13:28:30:223 -> 2108
13:28:30:232 -> 2113
13:28:30:242 -> 2006
13:28:30:252 -> 2132
13:28:30:262 -> 2078
13:28:30:273 -> 2090
13:28:30:295 -> 2056
13:28:30:304 -> 2090
13:28:30:304 -> 2050
13:28:30:313 -> 2116
13:28:30:323 -> 2003
13:28:30:333 -> 2134
13:28:30:343 -> 2035
13:28:30:353 -> 2083
13:28:30:363 -> 2073
13:28:30:373 -> 2053
13:28:30:383 -> 2090
13:28:30:393 -> 2091
13:28:30:404 -> 2038
13:28:30:413 -> 2093
13:28:30:423 -> 2091
13:28:30:433 -> 2101
13:28:30:443 -> 2077
13:28:30:453 -> 2075
13:28:30:463 -> 2111
13:28:30:473 -> 2033
13:28:30:483 -> 2110
13:28:30:494 -> 1993
13:28:30:504 -> 2118
13:28:30:514 -> 2022
13:28:30:524 -> 2137
13:28:30:534 -> 2004
13:28:30:545 -> 2121
13:28:30:554 -> 2017
13:28:30:595 -> 2103
13:28:30:596 -> 2032
13:28:30:596 -> 2169
13:28:30:596 -> 2054
13:28:30:605 -> 2094
13:28:30:614 -> 2046
13:28:30:624 -> 2110
13:28:30:635 -> 2071
13:28:30:644 -> 2066
13:28:30:654 -> 2066
13:28:30:666 -> 2023
13:28:30:674 -> 2045
13:28:30:684 -> 2102
13:28:30:694 -> 2091
13:28:30:704 -> 2071
13:28:30:715 -> 2098
13:28:30:724 -> 2036
13:28:30:734 -> 2086
13:28:30:745 -> 2086
13:28:30:755 -> 2095
13:28:30:765 -> 2084
13:28:30:775 -> 2121
13:28:30:789 -> 2100
13:28:30:795 -> 2084
13:28:30:805 -> 2078
13:28:30:815 -> 2077
13:28:30:825 -> 2066
13:28:30:835 -> 2085
13:28:30:845 -> 2085
13:28:30:855 -> 2067
13:28:30:865 -> 2078
13:28:30:875 -> 2079
13:28:30:885 -> 2136
13:28:30:895 -> 2072
13:28:30:907 -> 2075
13:28:30:919 -> 2089
13:28:30:925 -> 2067
13:28:30:943 -> 2068
13:28:30:951 -> 2091
13:28:30:955 -> 2049
13:28:30:966 -> 2091
13:28:30:977 -> 2073
13:28:30:986 -> 2081
13:28:30:996 -> 2057
13:28:31:006 -> 2083
13:28:31:016 -> 2040
13:28:31:026 -> 2112
13:28:31:036 -> 2066
13:28:31:046 -> 2081
13:28:31:056 -> 2040
13:28:31:081 -> 2103
13:28:31:081 -> 2027
13:28:31:131 -> 2145
13:28:31:131 -> 1980
13:28:31:131 -> 2128
13:28:31:151 -> 2011
13:28:31:151 -> 2150
13:28:31:151 -> 2013
13:28:31:151 -> 2122
13:28:31:157 -> 2012
13:28:31:166 -> 2158
13:28:31:181 -> 2007
13:28:31:187 -> 2149
13:28:31:198 -> 1986
13:28:31:208 -> 2133
13:28:31:217 -> 2008
13:28:31:229 -> 2158
13:28:31:237 -> 2001
13:28:31:247 -> 2154
13:28:31:257 -> 2022
13:28:31:267 -> 2149
13:28:31:277 -> 2001
13:28:31:287 -> 2155
13:28:31:298 -> 1991
13:28:31:307 -> 2177
13:28:31:317 -> 1981
13:28:31:327 -> 2179
13:28:31:337 -> 1970
13:28:31:347 -> 2194
13:28:31:357 -> 1965
13:28:31:367 -> 2195
13:28:31:377 -> 1936
13:28:31:387 -> 2266
13:28:31:398 -> 1886
13:28:31:407 -> 2279
13:28:31:428 -> 1964
13:28:31:431 -> 2247
13:28:31:438 -> 1928
13:28:31:448 -> 2253
13:28:31:458 -> 1924
13:28:31:468 -> 2255
13:28:31:478 -> 1938
13:28:31:488 -> 2215
13:28:31:498 -> 1945
13:28:31:508 -> 2254
13:28:31:518 -> 1974
13:28:31:528 -> 2213
13:28:31:545 -> 1921
13:28:31:548 -> 2217
13:28:31:558 -> 1949
13:28:31:568 -> 2216
13:28:31:578 -> 1957
13:28:31:592 -> 2280
13:28:31:600 -> 1930
13:28:31:608 -> 2218
13:28:31:619 -> 1960
13:28:31:628 -> 2219
13:28:31:666 -> 1957
13:28:31:669 -> 2176
13:28:31:669 -> 1948
13:28:31:669 -> 2188
13:28:31:679 -> 1963
13:28:31:690 -> 2165
13:28:31:699 -> 1971
13:28:31:709 -> 2125
13:28:31:719 -> 1967
13:28:31:729 -> 2166
13:28:31:739 -> 1974
13:28:31:749 -> 2141
13:28:31:759 -> 1989
13:28:31:769 -> 2151
13:28:31:779 -> 1995
13:28:31:789 -> 2117
13:28:31:799 -> 1981
13:28:31:809 -> 2131
13:28:31:819 -> 1966
13:28:31:829 -> 2157
13:28:31:839 -> 1996
13:28:31:858 -> 2160
13:28:31:870 -> 2019
13:28:31:878 -> 2134
13:28:31:886 -> 1996
13:28:31:890 -> 2147
13:28:31:902 -> 1980
13:28:31:910 -> 2156
13:28:31:920 -> 2015
13:28:31:930 -> 2145
13:28:31:940 -> 2028
13:28:31:950 -> 2141
13:28:31:960 -> 2056
13:28:31:970 -> 2139
13:28:31:980 -> 2052
13:28:31:990 -> 2160
13:28:32:000 -> 2066
13:28:32:010 -> 2123
13:28:32:020 -> 2037
13:28:32:031 -> 2140
13:28:32:040 -> 2052
13:28:32:050 -> 2136
13:28:32:060 -> 2066
13:28:32:070 -> 2143
13:28:32:080 -> 2061
13:28:32:090 -> 2125
13:28:32:101 -> 2101
13:28:32:110 -> 2144
13:28:32:121 -> 2055
13:28:32:131 -> 2140
13:28:32:141 -> 2071
13:28:32:159 -> 2152
13:28:32:161 -> 2061
13:28:32:192 -> 2078
13:28:32:192 -> 2090
13:28:32:192 -> 2100
13:28:32:201 -> 2067
13:28:32:211 -> 2079
13:28:32:221 -> 2075
13:28:32:231 -> 2090
13:28:32:241 -> 2080
13:28:32:251 -> 2065
13:28:32:261 -> 2074
13:28:32:272 -> 2073
13:28:32:281 -> 2051
13:28:32:291 -> 2090
13:28:32:301 -> 2084
13:28:32:311 -> 2081
13:28:32:323 -> 2104
13:28:32:332 -> 2043
13:28:32:342 -> 2053
13:28:32:352 -> 2062
13:28:32:371 -> 2070
13:28:32:373 -> 2047
13:28:32:382 -> 2045
13:28:32:392 -> 2062
13:28:32:402 -> 2047
13:28:32:412 -> 2050
13:28:32:422 -> 2023
13:28:32:432 -> 2017
13:28:32:442 -> 2058
13:28:32:452 -> 2050
13:28:32:462 -> 2032
13:28:32:474 -> 2043
13:28:32:485 -> 2063
13:28:32:492 -> 2016
13:28:32:503 -> 2084
13:28:32:533 -> 1980
13:28:32:541 -> 2117
13:28:32:541 -> 2008
13:28:32:579 -> 2109
13:28:32:579 -> 1986
13:28:32:579 -> 2137
13:28:32:579 -> 2004
13:28:32:587 -> 2123
13:28:32:593 -> 2008
13:28:32:603 -> 2120
13:28:32:617 -> 2015
13:28:32:625 -> 2046
13:28:32:633 -> 1992
13:28:32:644 -> 2108
13:28:32:653 -> 2096
13:28:32:663 -> 2073
13:28:32:674 -> 2080
13:28:32:723 -> 2023
13:28:32:726 -> 2144
13:28:32:726 -> 2009
13:28:32:726 -> 2103
13:28:32:726 -> 2099
13:28:32:733 -> 2138
13:28:32:745 -> 2079
13:28:32:753 -> 2101
13:28:32:764 -> 2092
13:28:32:776 -> 2132
13:28:32:784 -> 2109
13:28:32:795 -> 2144
13:28:32:804 -> 2121
13:28:32:814 -> 2059
13:28:32:824 -> 2037
13:28:32:834 -> 1942
13:28:32:844 -> 1790
13:28:32:855 -> 1984
13:28:32:864 -> 2141
13:28:32:875 -> 2135
13:28:32:885 -> 2018
13:28:32:894 -> 2053
13:28:32:904 -> 2119
13:28:32:924 -> 2193
13:28:32:914 -> 2098
13:28:32:934 -> 1918
13:28:32:944 -> 2128
13:28:32:972 -> 2141
13:28:32:974 -> 2070
13:28:32:976 -> 2011
13:28:32:984 -> 2009
13:28:32:994 -> 2048
13:28:33:004 -> 1983
13:28:33:015 -> 2093
13:28:33:025 -> 2030
13:28:33:035 -> 2164
13:28:33:045 -> 2120
13:28:33:055 -> 2151
13:28:33:065 -> 2071
13:28:33:075 -> 2165
13:28:33:086 -> 1991
13:28:33:095 -> 2064
13:28:33:105 -> 2052
13:28:33:115 -> 1903
13:28:33:125 -> 2071
13:28:33:135 -> 2115
13:28:33:149 -> 1898
13:28:33:155 -> 2086
13:28:33:165 -> 2178
13:28:33:175 -> 2006
13:28:33:185 -> 1831
13:28:33:195 -> 2110
13:28:33:205 -> 2266
13:28:33:215 -> 2172
13:28:33:260 -> 2006
13:28:33:263 -> 2175
13:28:33:263 -> 2190
13:28:33:263 -> 2289
13:28:33:266 -> 1791
13:28:33:276 -> 2101
13:28:33:286 -> 2408
13:28:33:296 -> 1961
13:28:33:306 -> 1673
13:28:33:316 -> 1405
13:28:33:326 -> 2600
13:28:33:337 -> 2175
13:28:33:346 -> 1736
13:28:33:356 -> 1829
13:28:33:368 -> 2560
13:28:33:376 -> 1637
13:28:33:386 -> 2244
13:28:33:397 -> 1833
13:28:33:406 -> 1781
13:28:33:416 -> 2078
13:28:33:426 -> 1925
13:28:33:437 -> 468
13:28:33:446 -> 2054
13:28:33:456 -> 1907
13:28:33:466 -> 2043
13:28:33:477 -> 1436
13:28:33:486 -> 2095
13:28:33:497 -> 2219
13:28:33:507 -> 2871
13:28:33:523 -> 1622
13:28:33:527 -> 2104
13:28:33:537 -> 2313
13:28:33:549 -> 2394
13:28:33:558 -> 1813
13:28:33:569 -> 2423
13:28:33:577 -> 2301
13:28:33:587 -> 2470
13:28:33:597 -> 2375
13:28:33:608 -> 2301
13:28:33:617 -> 1155
13:28:33:629 -> 2992
13:28:33:637 -> 1898
13:28:33:647 -> 2647
13:28:33:657 -> 2355
13:28:33:668 -> 2687
13:28:33:677 -> 2493
13:28:33:688 -> 2518
13:28:33:697 -> 1819
13:28:33:708 -> 1846
13:28:33:717 -> 2278
13:28:33:728 -> 2219
13:28:33:738 -> 1789
13:28:33:748 -> 2012
13:28:33:758 -> 1807
13:28:33:786 -> 2342
13:28:33:786 -> 1865
13:28:33:788 -> 2346
13:28:33:798 -> 2168
13:28:33:808 -> 2012
13:28:33:818 -> 1830
13:28:33:829 -> 2300
13:28:33:838 -> 2301
13:28:33:849 -> 2455
13:28:33:858 -> 2072
13:28:33:868 -> 1867
13:28:33:878 -> 1038
13:28:33:892 -> 2408
13:28:33:898 -> 1960
13:28:33:908 -> 2137
13:28:33:918 -> 1053
13:28:33:928 -> 2354
13:28:33:938 -> 2064
13:28:33:949 -> 2030
13:28:33:959 -> 1668
13:28:33:969 -> 2399
13:28:33:997 -> 2076
13:28:34:048 -> 1728
13:28:34:048 -> 2069
13:28:34:048 -> 1874
13:28:34:048 -> 2228
13:28:34:048 -> 1468
13:28:34:081 -> 2115
13:28:34:081 -> 2206
13:28:34:081 -> 1844
13:28:34:081 -> 2209
13:28:34:081 -> 1910
13:28:34:113 -> 1558
13:28:34:113 -> 2452
13:28:34:113 -> 2129
13:28:34:127 -> 1444
13:28:34:145 -> 1931
13:28:34:145 -> 2422
13:28:34:149 -> 2047
13:28:34:160 -> 2146
13:28:34:170 -> 1255
13:28:34:182 -> 2419
13:28:34:193 -> 2298
13:28:34:200 -> 2012
13:28:34:210 -> 1795
13:28:34:220 -> 2282
13:28:34:230 -> 2341
13:28:34:240 -> 2288
13:28:34:253 -> 2815
13:28:34:260 -> 2270
13:28:34:270 -> 1909
13:28:34:280 -> 2175
13:28:34:312 -> 2492
13:28:34:314 -> 2181
13:28:34:314 -> 2847
13:28:34:320 -> 2237
13:28:34:331 -> 1955
13:28:34:340 -> 2060
13:28:34:360 -> 1558
13:28:34:361 -> 2349
13:28:34:371 -> 2263
13:28:34:381 -> 2201
13:28:34:393 -> 1784
13:28:34:401 -> 2053
13:28:34:413 -> 2041
13:28:34:421 -> 2357
13:28:34:431 -> 1988
13:28:34:441 -> 1776
13:28:34:451 -> 1556
13:28:34:461 -> 2200
13:28:34:471 -> 1947
13:28:34:481 -> 1806
13:28:34:491 -> 1698
13:28:34:501 -> 2310
13:28:34:511 -> 1841
13:28:34:521 -> 2307
13:28:34:531 -> 1721
13:28:34:541 -> 2514
13:28:34:551 -> 1941
13:28:34:561 -> 1820
13:28:34:572 -> 1744
13:28:34:581 -> 2045
13:28:34:593 -> 2628
13:28:34:601 -> 2545
13:28:34:611 -> 1993
13:28:34:623 -> 2042
13:28:34:632 -> 1640
13:28:34:642 -> 2331
13:28:34:652 -> 1864
13:28:34:663 -> 1939
13:28:34:672 -> 2215
13:28:34:682 -> 2665
13:28:34:692 -> 2094
13:28:34:702 -> 2100
13:28:34:712 -> 2045
13:28:34:723 -> 2009
13:28:34:732 -> 2401
13:28:34:742 -> 1754
13:28:34:753 -> 1943
13:28:34:770 -> 2109
13:28:34:772 -> 1815
13:28:34:782 -> 2531
13:28:34:793 -> 2554
13:28:34:802 -> 1919
13:28:34:838 -> 2089
13:28:34:844 -> 1790
13:28:34:844 -> 2250
13:28:34:845 -> 2522
13:28:34:858 -> 2060
13:28:34:864 -> 1884
13:28:34:873 -> 2020
13:28:34:883 -> 2176
13:28:34:894 -> 2217
13:28:34:906 -> 1961
13:28:34:913 -> 2523
13:28:34:923 -> 1967
13:28:34:933 -> 2384
13:28:34:943 -> 1547
13:28:34:953 -> 1512
13:28:34:963 -> 2645
13:28:34:973 -> 2446
13:28:34:983 -> 2169
13:28:34:993 -> 2029
13:28:35:003 -> 1892
13:28:35:024 -> 2087
13:28:35:026 -> 2173
13:28:35:034 -> 2147
13:28:35:045 -> 1990
13:28:35:053 -> 2054
13:28:35:063 -> 2170
13:28:35:073 -> 2058
13:28:35:083 -> 2107
13:28:35:093 -> 2077
13:28:35:104 -> 2083
13:28:35:114 -> 2101
13:28:35:124 -> 2132
13:28:35:135 -> 2046
13:28:35:144 -> 2141
13:28:35:154 -> 2072
13:28:35:164 -> 2125
13:28:35:174 -> 2015
13:28:35:185 -> 2126
13:28:35:194 -> 2024
13:28:35:204 -> 2120
13:28:35:214 -> 2041
13:28:35:225 -> 2113
13:28:35:234 -> 2031
13:28:35:244 -> 2133
13:28:35:254 -> 1964
13:28:35:265 -> 2116
13:28:35:274 -> 2009
13:28:35:284 -> 2182
13:28:35:294 -> 1994
13:28:35:304 -> 2153
13:28:35:315 -> 2022
13:28:35:325 -> 2097
13:28:35:335 -> 1969
13:28:35:366 -> 2122
13:28:35:367 -> 2045
13:28:35:367 -> 2217
13:28:35:375 -> 1981
13:28:35:385 -> 2211
13:28:35:395 -> 2004
13:28:35:406 -> 2203
13:28:35:415 -> 1992
13:28:35:425 -> 2197
13:28:35:435 -> 1987
13:28:35:445 -> 2152
13:28:35:467 -> 1948
13:28:35:469 -> 2250
13:28:35:476 -> 1928
13:28:35:485 -> 2221
13:28:35:496 -> 1964
13:28:35:505 -> 2165
13:28:35:515 -> 1930
13:28:35:545 -> 2198
13:28:35:545 -> 1960
13:28:35:549 -> 2270
13:28:35:585 -> 1943
13:28:35:585 -> 2211
13:28:35:585 -> 1965
13:28:35:590 -> 2226
13:28:35:596 -> 1933
13:28:35:618 -> 2213
13:28:35:624 -> 1992
13:28:35:626 -> 2198
13:28:35:636 -> 1968
13:28:35:646 -> 2183
13:28:35:657 -> 1982
13:28:35:666 -> 2217
13:28:35:677 -> 1961
13:28:35:686 -> 2174
13:28:35:696 -> 1905
13:28:35:706 -> 2209
13:28:35:716 -> 1974
13:28:35:729 -> 2204
13:28:35:736 -> 1955
13:28:35:747 -> 2118
13:28:35:757 -> 1970
13:28:35:767 -> 2175
13:28:35:784 -> 1974
13:28:35:787 -> 2170
13:28:35:797 -> 1948
13:28:35:807 -> 2202
13:28:35:817 -> 1980
13:28:35:828 -> 2207
13:28:35:837 -> 1953
13:28:35:848 -> 2129
13:28:35:857 -> 1990
13:28:35:891 -> 2190
13:28:35:892 -> 2042
13:28:35:892 -> 2112
13:28:35:897 -> 1999
13:28:35:907 -> 2156
13:28:35:918 -> 2006
13:28:35:927 -> 2158
13:28:35:939 -> 2008
13:28:35:947 -> 2155
13:28:35:957 -> 2004
13:28:35:967 -> 2059
13:28:35:977 -> 2069
13:28:35:987 -> 2163
13:28:35:998 -> 2005
13:28:36:008 -> 2147
13:28:36:018 -> 2017
13:28:36:028 -> 2120
13:28:36:038 -> 2066
13:28:36:057 -> 2071
13:28:36:058 -> 2027
13:28:36:069 -> 2140
13:28:36:078 -> 2058
13:28:36:089 -> 2118
13:28:36:098 -> 2064
13:28:36:109 -> 2132
13:28:36:118 -> 2035
13:28:36:128 -> 2179
13:28:36:138 -> 2026
13:28:36:148 -> 2116
13:28:36:159 -> 2093
13:28:36:169 -> 2150
13:28:36:183 -> 2066
13:28:36:189 -> 2135
13:28:36:198 -> 2052
13:28:36:208 -> 2131
13:28:36:219 -> 2088
13:28:36:229 -> 2136
13:28:36:239 -> 2091
13:28:36:249 -> 2056
13:28:36:259 -> 2107
13:28:36:269 -> 2079
13:28:36:279 -> 2101
13:28:36:289 -> 2096
13:28:36:304 -> 2071
13:28:36:309 -> 2084
13:28:36:319 -> 2053
13:28:36:329 -> 2112
13:28:36:339 -> 2104
13:28:36:362 -> 2043
13:28:36:365 -> 2082
13:28:36:379 -> 2039
13:28:36:369 -> 2085
13:28:36:389 -> 2075
13:28:36:423 -> 2057
13:28:36:425 -> 2070
13:28:36:425 -> 2058
13:28:36:429 -> 2069
13:28:36:440 -> 2063
13:28:36:449 -> 2055
13:28:36:460 -> 2085
13:28:36:470 -> 2040
13:28:36:480 -> 2070
13:28:36:490 -> 2059
13:28:36:500 -> 2068
13:28:36:510 -> 2044
13:28:36:520 -> 2073
13:28:36:530 -> 2073
13:28:36:541 -> 2088
13:28:36:550 -> 2094
13:28:36:560 -> 2100
13:28:36:570 -> 2036
13:28:36:580 -> 2129
13:28:36:590 -> 2025
13:28:36:600 -> 2131
13:28:36:610 -> 2051
13:28:36:621 -> 2156
13:28:36:632 -> 1981
13:28:36:640 -> 2167
13:28:36:650 -> 2020
13:28:36:661 -> 2167
13:28:36:670 -> 2027
13:28:36:680 -> 2146
13:28:36:691 -> 2047
13:28:36:701 -> 2116
13:28:36:711 -> 2007
13:28:36:721 -> 2099
13:28:36:731 -> 2093
13:28:36:741 -> 2104
13:28:36:751 -> 2098
13:28:36:761 -> 2110
13:28:36:771 -> 2074
13:28:36:781 -> 2119
13:28:36:791 -> 2096
13:28:36:801 -> 2079
13:28:36:811 -> 2106
13:28:36:821 -> 2110
13:28:36:831 -> 2105
13:28:36:841 -> 2091
13:28:36:852 -> 2093
13:28:36:861 -> 2084
13:28:36:881 -> 2115
13:28:36:883 -> 2066
13:28:36:892 -> 2120
13:28:36:901 -> 2070
13:28:36:912 -> 2136
13:28:36:922 -> 2031
13:28:36:959 -> 2097
13:28:36:960 -> 2089
13:28:36:960 -> 2073
13:28:36:962 -> 2083
13:28:36:972 -> 2075
13:28:36:982 -> 2083
13:28:36:992 -> 2100
13:28:37:002 -> 2099
13:28:37:012 -> 2101
13:28:37:022 -> 2085
13:28:37:032 -> 2109
13:28:37:042 -> 2058
13:28:37:053 -> 2078
13:28:37:062 -> 2062
13:28:37:072 -> 2088
13:28:37:082 -> 1998
13:28:37:092 -> 2061
13:28:37:102 -> 2057
13:28:37:113 -> 2076
13:28:37:122 -> 2071
13:28:37:133 -> 2048
13:28:37:143 -> 2092
13:28:37:162 -> 2049
13:28:37:165 -> 2095
13:28:37:173 -> 2038
13:28:37:183 -> 2125
13:28:37:195 -> 2040
13:28:37:203 -> 2103
13:28:37:215 -> 2024
13:28:37:223 -> 2127
13:28:37:233 -> 2028
13:28:37:243 -> 2089
13:28:37:253 -> 1988
13:28:37:281 -> 2141
13:28:37:291 -> 2006
13:28:37:291 -> 2109
13:28:37:317 -> 1984
13:28:37:317 -> 2109
13:28:37:317 -> 1982
13:28:37:339 -> 2142
13:28:37:339 -> 2054
13:28:37:346 -> 2112
13:28:37:354 -> 1989
13:28:37:372 -> 2173
13:28:37:376 -> 2016
13:28:37:384 -> 2143
13:28:37:394 -> 2002
13:28:37:404 -> 2205
13:28:37:414 -> 2017
13:28:37:425 -> 2220
13:28:37:435 -> 1978
13:28:37:444 -> 2214
13:28:37:454 -> 1981
13:28:37:504 -> 2181
13:28:37:506 -> 1971
13:28:37:506 -> 2196
13:28:37:506 -> 1952
13:28:37:506 -> 2221
13:28:37:514 -> 1966
13:28:37:524 -> 2204
13:28:37:534 -> 2025
13:28:37:544 -> 2194
13:28:37:555 -> 1985
13:28:37:565 -> 2215
13:28:37:575 -> 1985
13:28:37:585 -> 2176
13:28:37:596 -> 1975
13:28:37:605 -> 2227
13:28:37:615 -> 1984
13:28:37:625 -> 2255
13:28:37:635 -> 1960
13:28:37:645 -> 2171
13:28:37:655 -> 1977
13:28:37:669 -> 2206
13:28:37:675 -> 1965
13:28:37:685 -> 2210
13:28:37:695 -> 1968
13:28:37:705 -> 2171
13:28:37:716 -> 1990
13:28:37:725 -> 2255
13:28:37:735 -> 1914
13:28:37:745 -> 2184
13:28:37:755 -> 1979
13:28:37:765 -> 2200
13:28:37:775 -> 1952
13:28:37:785 -> 2174
13:28:37:797 -> 1918
13:28:37:806 -> 2201
13:28:37:816 -> 1959
13:28:37:826 -> 2240
13:28:37:843 -> 2012
13:28:37:846 -> 2179
13:28:37:856 -> 1989
13:28:37:866 -> 2212
13:28:37:876 -> 1963
13:28:37:887 -> 2164
13:28:37:896 -> 1933
13:28:37:906 -> 2140
13:28:37:917 -> 1882
13:28:37:929 -> 2177
13:28:37:937 -> 1970
13:28:37:946 -> 2127
13:28:37:956 -> 2097
13:28:37:966 -> 2125
13:28:37:976 -> 1925
13:28:37:987 -> 2038
13:28:37:996 -> 1970
13:28:38:027 -> 2162
13:28:38:028 -> 1945
13:28:38:028 -> 2197
13:28:38:037 -> 1894
13:28:38:047 -> 2135
13:28:38:057 -> 2143
13:28:38:070 -> 2339
13:28:38:077 -> 2156
13:28:38:087 -> 2070
13:28:38:097 -> 1927
13:28:38:107 -> 1991
13:28:38:127 -> 2213
13:28:38:129 -> 2074
13:28:38:137 -> 1729
13:28:38:147 -> 1994
13:28:38:157 -> 2061
13:28:38:167 -> 2394
13:28:38:177 -> 2443
13:28:38:187 -> 1702
13:28:38:197 -> 2441
13:28:38:207 -> 2166
13:28:38:217 -> 2213
13:28:38:227 -> 2274
13:28:38:237 -> 2129
13:28:38:248 -> 1859
13:28:38:258 -> 1770
13:28:38:268 -> 2157
13:28:38:278 -> 2430
13:28:38:288 -> 1381
13:28:38:298 -> 1552
13:28:38:308 -> 2280
13:28:38:318 -> 1838
13:28:38:328 -> 1992
13:28:38:338 -> 2220
13:28:38:348 -> 2418
13:28:38:358 -> 1856
13:28:38:368 -> 1890
13:28:38:378 -> 1926
13:28:38:388 -> 1978
13:28:38:398 -> 1652
13:28:38:408 -> 2301
13:28:38:418 -> 2074
13:28:38:428 -> 2228
13:28:38:438 -> 1119
13:28:38:451 -> 2273
13:28:38:458 -> 2489
13:28:38:468 -> 2224
13:28:38:479 -> 1974
13:28:38:489 -> 1358
13:28:38:499 -> 1830
13:28:38:509 -> 2290
13:28:38:519 -> 2414
13:28:38:564 -> 2285
13:28:38:567 -> 2166
13:28:38:567 -> 2443
13:28:38:567 -> 2207
13:28:38:569 -> 2010
13:28:38:579 -> 2239
13:28:38:589 -> 1834
13:28:38:599 -> 1974
13:28:38:609 -> 2323
13:28:38:619 -> 1490
13:28:38:629 -> 1795
13:28:38:639 -> 2348
13:28:38:649 -> 2438
13:28:38:659 -> 2326
13:28:38:672 -> 2129
13:28:38:679 -> 1730
13:28:38:690 -> 1810
13:28:38:700 -> 1929
13:28:38:712 -> 2222
13:28:38:720 -> 2450
13:28:38:731 -> 2354
13:28:38:740 -> 2252
13:28:38:750 -> 2328
13:28:38:760 -> 1927
13:28:38:770 -> 2169
13:28:38:782 -> 2067
13:28:38:790 -> 1764
13:28:38:800 -> 1337
13:28:38:810 -> 1798
13:28:38:820 -> 2330
13:28:38:830 -> 2151
13:28:38:840 -> 1857
13:28:38:850 -> 2632
13:28:38:860 -> 2279
13:28:38:870 -> 2148
13:28:38:888 -> 1909
13:28:38:890 -> 2260
13:28:38:900 -> 1666
13:28:38:910 -> 1940
13:28:38:921 -> 2438
13:28:38:931 -> 2273
13:28:38:941 -> 2016
13:28:38:951 -> 1966
13:28:38:961 -> 814
13:28:38:971 -> 1843
13:28:38:981 -> 2153
13:28:38:991 -> 1683
13:28:39:001 -> 1873
13:28:39:039 -> 1800
13:28:39:101 -> 1966
13:28:39:101 -> 2702
13:28:39:101 -> 2530
13:28:39:101 -> 2078
13:28:39:101 -> 2397
13:28:39:101 -> 2103
13:28:39:114 -> 2183
13:28:39:114 -> 2332
13:28:39:114 -> 1812
13:28:39:114 -> 2184
13:28:39:122 -> 2246
13:28:39:148 -> 2168
13:28:39:148 -> 1813
13:28:39:151 -> 1984
13:28:39:162 -> 2065
13:28:39:172 -> 2031
13:28:39:182 -> 2280
13:28:39:192 -> 2197
13:28:39:202 -> 2070
13:28:39:212 -> 1884
13:28:39:222 -> 2343
13:28:39:233 -> 2364
13:28:39:242 -> 2516
13:28:39:252 -> 2333
13:28:39:262 -> 1846
13:28:39:275 -> 2228
13:28:39:282 -> 2210
13:28:39:292 -> 1945
13:28:39:302 -> 1707
13:28:39:312 -> 2619
13:28:39:322 -> 2353
13:28:39:332 -> 2089
13:28:39:342 -> 2041
13:28:39:352 -> 1951
13:28:39:362 -> 2459
13:28:39:373 -> 2069
13:28:39:383 -> 2104
13:28:39:393 -> 1955
13:28:39:403 -> 2127
13:28:39:413 -> 1888
13:28:39:423 -> 2258
13:28:39:433 -> 1299
13:28:39:443 -> 2098
13:28:39:453 -> 1962
13:28:39:463 -> 2357
13:28:39:473 -> 1846
13:28:39:483 -> 1725
13:28:39:493 -> 2159
13:28:39:504 -> 2178
13:28:39:513 -> 2271
13:28:39:523 -> 2181
13:28:39:533 -> 2162
13:28:39:544 -> 2507
13:28:39:553 -> 1867
13:28:39:563 -> 2297
13:28:39:574 -> 2258
13:28:39:584 -> 2492
13:28:39:593 -> 2287
13:28:39:639 -> 2503
13:28:39:640 -> 1929
13:28:39:640 -> 2205
13:28:39:640 -> 2457
13:28:39:644 -> 1619
13:28:39:654 -> 1382
13:28:39:664 -> 1856
13:28:39:675 -> 2266
13:28:39:684 -> 1841
13:28:39:694 -> 2446
13:28:39:705 -> 2209
13:28:39:714 -> 1993
13:28:39:724 -> 1899
13:28:39:734 -> 2297
13:28:39:744 -> 1187
13:28:39:754 -> 2082
13:28:39:764 -> 2453
13:28:39:775 -> 1895
13:28:39:784 -> 2831
13:28:39:794 -> 1673
13:28:39:805 -> 2740
13:28:39:815 -> 2238
13:28:39:824 -> 2222
13:28:39:834 -> 1589
13:28:39:845 -> 2238
13:28:39:855 -> 1724
13:28:39:873 -> 2244
13:28:39:875 -> 1916
13:28:39:885 -> 2104
13:28:39:895 -> 2026
13:28:39:905 -> 2139
13:28:39:915 -> 1971
13:28:39:925 -> 2359
13:28:39:935 -> 1721
13:28:39:945 -> 2290
13:28:39:955 -> 1824
13:28:39:965 -> 2252
13:28:39:975 -> 1963
13:28:39:985 -> 2153
13:28:39:995 -> 1994
13:28:40:006 -> 2208
13:28:40:015 -> 2082
13:28:40:025 -> 2206
13:28:40:036 -> 2044
13:28:40:045 -> 2169
13:28:40:056 -> 1949
13:28:40:066 -> 2125
13:28:40:076 -> 2035
13:28:40:086 -> 2115
13:28:40:105 -> 2030
13:28:40:107 -> 2111
13:28:40:116 -> 2048
13:28:40:126 -> 2178
13:28:40:136 -> 2014
13:28:40:165 -> 2169
13:28:40:166 -> 2059
13:28:40:167 -> 2147
13:28:40:176 -> 2067
13:28:40:186 -> 2124
13:28:40:196 -> 1997
13:28:40:206 -> 2095
13:28:40:216 -> 2043
13:28:40:226 -> 2133
13:28:40:236 -> 2068
13:28:40:247 -> 2094
13:28:40:256 -> 2057
13:28:40:267 -> 2167
13:28:40:276 -> 2011
13:28:40:288 -> 2126
13:28:40:297 -> 2025
13:28:40:307 -> 2199
13:28:40:317 -> 1967
13:28:40:327 -> 2196
13:28:40:337 -> 2129
13:28:40:347 -> 2112
13:28:40:357 -> 2103
13:28:40:367 -> 2109
13:28:40:377 -> 2131
13:28:40:387 -> 2201
13:28:40:397 -> 2029
13:28:40:407 -> 2145
13:28:40:418 -> 2110
13:28:40:427 -> 2090
13:28:40:439 -> 2092
13:28:40:447 -> 2112
13:28:40:458 -> 2040
13:28:40:467 -> 2200
13:28:40:477 -> 2109
13:28:40:487 -> 2101
13:28:40:498 -> 2086
13:28:40:507 -> 2058
13:28:40:518 -> 2056
13:28:40:528 -> 2079
13:28:40:538 -> 2115
13:28:40:548 -> 2072
13:28:40:558 -> 2044
13:28:40:568 -> 2093
13:28:40:579 -> 2069
13:28:40:588 -> 2042
13:28:40:598 -> 2080
13:28:40:608 -> 2081
13:28:40:618 -> 2106
13:28:40:628 -> 2062
13:28:40:641 -> 2139
13:28:40:648 -> 2007
13:28:40:658 -> 2131
13:28:40:699 -> 2030
13:28:40:704 -> 2125
13:28:40:704 -> 2050
13:28:40:704 -> 2123
13:28:40:709 -> 1943
13:28:40:718 -> 2131
13:28:40:729 -> 2054
13:28:40:738 -> 2045
13:28:40:749 -> 2035
13:28:40:759 -> 2085
13:28:40:769 -> 2070
13:28:40:779 -> 2095
13:28:40:791 -> 2032
13:28:40:803 -> 2055
13:28:40:811 -> 2090
13:28:40:829 -> 2054
13:28:40:836 -> 2056
13:28:40:841 -> 2072
13:28:40:849 -> 2079
13:28:40:861 -> 2122
13:28:40:870 -> 2091
13:28:40:880 -> 2103
13:28:40:890 -> 2107
13:28:40:899 -> 2112
13:28:40:909 -> 2108
13:28:40:919 -> 2060
13:28:40:929 -> 2103
13:28:40:939 -> 2007
13:28:40:950 -> 2137
13:28:40:959 -> 2103
13:28:40:970 -> 2073
13:28:40:980 -> 2097
13:28:40:990 -> 2135
13:28:41:000 -> 2086
13:28:41:038 -> 2106
13:28:41:056 -> 2116
13:28:41:056 -> 2087
13:28:41:056 -> 2155
13:28:41:056 -> 2064
13:28:41:091 -> 2074
13:28:41:091 -> 2036
13:28:41:091 -> 2083
13:28:41:091 -> 2075
13:28:41:122 -> 2066
13:28:41:122 -> 2042
13:28:41:122 -> 2094
13:28:41:157 -> 2071
13:28:41:157 -> 2101
13:28:41:157 -> 2076
13:28:41:169 -> 2077
13:28:41:172 -> 2106
13:28:41:180 -> 2090
13:28:41:193 -> 2010
13:28:41:224 -> 2151
13:28:41:225 -> 2015
13:28:41:225 -> 2093
13:28:41:231 -> 2030
13:28:41:241 -> 2117
13:28:41:251 -> 2050
13:28:41:261 -> 2137
13:28:41:271 -> 2042
13:28:41:281 -> 1979
13:28:41:291 -> 2025
13:28:41:301 -> 2164
13:28:41:311 -> 1999
13:28:41:321 -> 2154
13:28:41:331 -> 1982
13:28:41:341 -> 2190
13:28:41:352 -> 2023
13:28:41:361 -> 2099
13:28:41:371 -> 1942
13:28:41:381 -> 2188
13:28:41:391 -> 1989
13:28:41:401 -> 2146
13:28:41:412 -> 1969
13:28:41:422 -> 2185
13:28:41:432 -> 2009
13:28:41:443 -> 2169
13:28:41:453 -> 1966
13:28:41:462 -> 2166
13:28:41:473 -> 2010
13:28:41:482 -> 2141
13:28:41:492 -> 1987
13:28:41:502 -> 2179
13:28:41:513 -> 1942
13:28:41:522 -> 2175
13:28:41:533 -> 1944
13:28:41:542 -> 2182
13:28:41:552 -> 1961
13:28:41:565 -> 2199
13:28:41:572 -> 1936
13:28:41:585 -> 2194
13:28:41:593 -> 1974
13:28:41:605 -> 2228
13:28:41:612 -> 1960
13:28:41:624 -> 2236
13:28:41:633 -> 1943
13:28:41:643 -> 2234
13:28:41:652 -> 1976
13:28:41:664 -> 2227
13:28:41:674 -> 1977
13:28:41:683 -> 2216
13:28:41:704 -> 1894
13:28:41:705 -> 2226
13:28:41:713 -> 1964
13:28:41:723 -> 2217
13:28:41:765 -> 1925
13:28:41:769 -> 2183
13:28:41:769 -> 1942
13:28:41:769 -> 2198
13:28:41:773 -> 1865
13:28:41:783 -> 2149
13:28:41:793 -> 1970
13:28:41:803 -> 2203
13:28:41:813 -> 1945
13:28:41:823 -> 2156
13:28:41:834 -> 1956
13:28:41:843 -> 2247
13:28:41:853 -> 1921
13:28:41:863 -> 2182
13:28:41:874 -> 1966
13:28:41:884 -> 2172
13:28:41:894 -> 1962
13:28:41:904 -> 2175
13:28:41:914 -> 1990
13:28:41:924 -> 2137
13:28:41:934 -> 1987
13:28:41:944 -> 2187
13:28:41:954 -> 1983
13:28:41:965 -> 2166
13:28:41:981 -> 1962
13:28:41:984 -> 2194
13:28:41:994 -> 1974
13:28:42:004 -> 2163
13:28:42:015 -> 1984
13:28:42:024 -> 2116
13:28:42:034 -> 2063
13:28:42:044 -> 2164
13:28:42:054 -> 2008
13:28:42:064 -> 2127
13:28:42:074 -> 2018
13:28:42:084 -> 2145
13:28:42:095 -> 2012
13:28:42:105 -> 2126
13:28:42:115 -> 1993
13:28:42:125 -> 2166
13:28:42:142 -> 1983
13:28:42:145 -> 2137
13:28:42:155 -> 2027
13:28:42:165 -> 2105
13:28:42:175 -> 2062
13:28:42:185 -> 2124
13:28:42:195 -> 2062
13:28:42:212 -> 2088
13:28:42:217 -> 2022
13:28:42:225 -> 2073
13:28:42:239 -> 2076
13:28:42:245 -> 2144
13:28:42:256 -> 2067
13:28:42:288 -> 2117
13:28:42:290 -> 2099
13:28:42:290 -> 2095
13:28:42:295 -> 2058
13:28:42:306 -> 2098
13:28:42:316 -> 2068
13:28:42:325 -> 2120
13:28:42:336 -> 2084
13:28:42:346 -> 2152
13:28:42:356 -> 2086
13:28:42:366 -> 2101
13:28:42:377 -> 2033
13:28:42:389 -> 2130
13:28:42:396 -> 2109
13:28:42:406 -> 2119
13:28:42:416 -> 2043
13:28:42:426 -> 2119
13:28:42:436 -> 2027
13:28:42:446 -> 2094
13:28:42:456 -> 2119
13:28:42:466 -> 2152
13:28:42:476 -> 2025
13:28:42:486 -> 2044
13:28:42:496 -> 2069
13:28:42:506 -> 2073
13:28:42:517 -> 2047
13:28:42:526 -> 2060
13:28:42:536 -> 2048
13:28:42:546 -> 2011
13:28:42:557 -> 2036
13:28:42:567 -> 1973
13:28:42:577 -> 2005
13:28:42:587 -> 2041
13:28:42:601 -> 2089
13:28:42:607 -> 2086
13:28:42:618 -> 1995
13:28:42:627 -> 2097
13:28:42:640 -> 2068
13:28:42:648 -> 2184
13:28:42:682 -> 2088
13:28:42:682 -> 2146
13:28:42:682 -> 2123
13:28:42:700 -> 2085
13:28:42:700 -> 2110
13:28:42:722 -> 2037
13:28:42:722 -> 2141
13:28:42:738 -> 2081
13:28:42:738 -> 2112
13:28:42:752 -> 2077
13:28:42:764 -> 2163
13:28:42:770 -> 2006
13:28:42:778 -> 2138
13:28:42:810 -> 2070
13:28:42:811 -> 2115
13:28:42:811 -> 2016
13:28:42:818 -> 2184
13:28:42:828 -> 2110
13:28:42:838 -> 2089
13:28:42:848 -> 2052
13:28:42:858 -> 2113
13:28:42:869 -> 2117
13:28:42:878 -> 2071
13:28:42:906 -> 2121
13:28:42:910 -> 2149
13:28:42:910 -> 2119
13:28:42:919 -> 2120
13:28:42:928 -> 2046
13:28:42:938 -> 2198
13:28:42:948 -> 2050
13:28:42:958 -> 2002
13:28:42:968 -> 1889
13:28:42:982 -> 2027
13:28:42:988 -> 2288
13:28:42:998 -> 2237
13:28:43:008 -> 1978
13:28:43:019 -> 2128
13:28:43:029 -> 1970
13:28:43:039 -> 2028
13:28:43:049 -> 1351
13:28:43:059 -> 2383
13:28:43:070 -> 2182
13:28:43:079 -> 2016
13:28:43:089 -> 2029
13:28:43:099 -> 2218
13:28:43:109 -> 1907
13:28:43:119 -> 2229
13:28:43:131 -> 2329
13:28:43:139 -> 2363
13:28:43:149 -> 1370
13:28:43:159 -> 1912
13:28:43:169 -> 2369
13:28:43:179 -> 2137
13:28:43:189 -> 1321
13:28:43:199 -> 2359
13:28:43:209 -> 2149
13:28:43:219 -> 2096
13:28:43:230 -> 1800
13:28:43:240 -> 2044
13:28:43:250 -> 2067
13:28:43:260 -> 1431
13:28:43:271 -> 2287
13:28:43:283 -> 2145
13:28:43:290 -> 2226
13:28:43:300 -> 2247
13:28:43:336 -> 1890
13:28:43:337 -> 1976
13:28:43:337 -> 2334
13:28:43:340 -> 2149
13:28:43:350 -> 2328
13:28:43:360 -> 2068
13:28:43:370 -> 2065
13:28:43:380 -> 1556
13:28:43:390 -> 1974
13:28:43:400 -> 2260
13:28:43:411 -> 2103
13:28:43:420 -> 1999
13:28:43:430 -> 2129
13:28:43:440 -> 2412
13:28:43:450 -> 1429
13:28:43:461 -> 2473
13:28:43:471 -> 2056
13:28:43:482 -> 2082
13:28:43:491 -> 1898
13:28:43:501 -> 2229
13:28:43:511 -> 1945
13:28:43:521 -> 2200
13:28:43:532 -> 2524
13:28:43:541 -> 2387
13:28:43:555 -> 1422
13:28:43:561 -> 1911
13:28:43:571 -> 2243
13:28:43:581 -> 2292
13:28:43:591 -> 2039
13:28:43:601 -> 2198
13:28:43:611 -> 1974
13:28:43:621 -> 1637
13:28:43:631 -> 2319
13:28:43:641 -> 2438
13:28:43:651 -> 1906
13:28:43:661 -> 2546
13:28:43:672 -> 2106
13:28:43:682 -> 2595
13:28:43:692 -> 1816
13:28:43:703 -> 2200
13:28:43:712 -> 1629
13:28:43:722 -> 2218
13:28:43:732 -> 2140
13:28:43:742 -> 1642
13:28:43:752 -> 2047
13:28:43:762 -> 2494
13:28:43:772 -> 2041
13:28:43:782 -> 2363
13:28:43:792 -> 2294
13:28:43:802 -> 1764
13:28:43:812 -> 2067
13:28:43:822 -> 2297
13:28:43:833 -> 2109
13:28:43:867 -> 2932
13:28:43:869 -> 2109
13:28:43:869 -> 2225
13:28:43:872 -> 2140
13:28:43:882 -> 1753
13:28:43:893 -> 2475
13:28:43:902 -> 1874
13:28:43:913 -> 2259
13:28:43:923 -> 2242
13:28:43:933 -> 1576
13:28:43:943 -> 2584
13:28:43:953 -> 2220
13:28:43:965 -> 1293
13:28:43:973 -> 1712
13:28:43:983 -> 2628
13:28:43:996 -> 2478
13:28:44:003 -> 2455
13:28:44:013 -> 2334
13:28:44:023 -> 1680
13:28:44:033 -> 2262
13:28:44:043 -> 2222
13:28:44:053 -> 2138
13:28:44:063 -> 1698
13:28:44:073 -> 1383
13:28:44:083 -> 2802
13:28:44:093 -> 1902
13:28:44:103 -> 2490
13:28:44:138 -> 1764
13:28:44:138 -> 2577
13:28:44:138 -> 2237
13:28:44:176 -> 2372
13:28:44:176 -> 1210
13:28:44:176 -> 1375
13:28:44:176 -> 2211
13:28:44:184 -> 2602
13:28:44:233 -> 1736
13:28:44:233 -> 2387
13:28:44:233 -> 1735
13:28:44:233 -> 2547
13:28:44:248 -> 1898
13:28:44:248 -> 2303
13:28:44:254 -> 499
13:28:44:264 -> 2550
13:28:44:274 -> 2108
13:28:44:284 -> 2811
13:28:44:296 -> 2296
13:28:44:304 -> 2149
13:28:44:314 -> 1800
13:28:44:324 -> 2287
13:28:44:335 -> 2153
13:28:44:344 -> 2261
13:28:44:355 -> 1280
13:28:44:364 -> 2585
13:28:44:409 -> 2072
13:28:44:417 -> 1605
13:28:44:417 -> 1514
13:28:44:417 -> 1393
13:28:44:417 -> 2212
13:28:44:425 -> 1748
13:28:44:435 -> 1845
13:28:44:445 -> 2053
13:28:44:455 -> 1543
13:28:44:465 -> 1986
13:28:44:475 -> 2390
13:28:44:488 -> 2060
13:28:44:496 -> 134
13:28:44:505 -> 2509
13:28:44:515 -> 2273
13:28:44:528 -> 1949
13:28:44:535 -> 1745
13:28:44:545 -> 2522
13:28:44:556 -> 1700
13:28:44:565 -> 2394
13:28:44:575 -> 1539
13:28:44:595 -> 2056
13:28:44:598 -> 2135
13:28:44:606 -> 2008
13:28:44:616 -> 2089
13:28:44:626 -> 2161
13:28:44:636 -> 2108
13:28:44:647 -> 1789
13:28:44:657 -> 2138
13:28:44:666 -> 1967
13:28:44:676 -> 2069
13:28:44:686 -> 2032
13:28:44:697 -> 1999
13:28:44:706 -> 2005
13:28:44:716 -> 2053
13:28:44:726 -> 2051
13:28:44:736 -> 2036
13:28:44:746 -> 2053
13:28:44:756 -> 2034
13:28:44:767 -> 2043
13:28:44:776 -> 2053
13:28:44:786 -> 1995
13:28:44:796 -> 2075
13:28:44:806 -> 2027
13:28:44:816 -> 2062
13:28:44:827 -> 1970
13:28:44:837 -> 2138
13:28:44:847 -> 1969
13:28:44:857 -> 2115
13:28:44:867 -> 2018
13:28:44:878 -> 2137
13:28:44:888 -> 1988
13:28:44:897 -> 2037
13:28:44:907 -> 2071
13:28:44:937 -> 2047
13:28:44:941 -> 2102
13:28:44:941 -> 2081
13:28:44:947 -> 2014
13:28:44:957 -> 2058
13:28:44:967 -> 2087
13:28:44:978 -> 2070
13:28:44:987 -> 2120
13:28:44:997 -> 2043
13:28:45:007 -> 2118
13:28:45:018 -> 2041
13:28:45:027 -> 2125
13:28:45:039 -> 2061
13:28:45:048 -> 2127
13:28:45:061 -> 2112
13:28:45:068 -> 2106
13:28:45:078 -> 2100
13:28:45:088 -> 2136
13:28:45:098 -> 2055
13:28:45:115 -> 2096
13:28:45:119 -> 2034
13:28:45:140 -> 2125
13:28:45:140 -> 2094
13:28:45:150 -> 2095
13:28:45:158 -> 2156
13:28:45:168 -> 2110
13:28:45:181 -> 2109
13:28:45:198 -> 2089
13:28:45:198 -> 2123
13:28:45:208 -> 2086
13:28:45:218 -> 2080
13:28:45:228 -> 2077
13:28:45:238 -> 2077
13:28:45:248 -> 2116
13:28:45:259 -> 2011
13:28:45:268 -> 2102
13:28:45:279 -> 2070
13:28:45:291 -> 2069
13:28:45:299 -> 2034
13:28:45:314 -> 2078
13:28:45:319 -> 2087
13:28:45:330 -> 2101
13:28:45:355 -> 2092
13:28:45:355 -> 2068
13:28:45:361 -> 2148
13:28:45:375 -> 2040
13:28:45:384 -> 2146
13:28:45:389 -> 2011
13:28:45:404 -> 2140
13:28:45:430 -> 2041
13:28:45:430 -> 2134
13:28:45:430 -> 2026
13:28:45:484 -> 2161
13:28:45:487 -> 2012
13:28:45:487 -> 2098
13:28:45:487 -> 2005
13:28:45:487 -> 2154
13:28:45:490 -> 2007
13:28:45:499 -> 2138
13:28:45:510 -> 2007
13:28:45:521 -> 2097
13:28:45:530 -> 1989
13:28:45:540 -> 2086
13:28:45:550 -> 2005
13:28:45:560 -> 2128
13:28:45:570 -> 2015
13:28:45:580 -> 2145
13:28:45:590 -> 2015
13:28:45:600 -> 2181
13:28:45:610 -> 1992
13:28:45:620 -> 2153
13:28:45:630 -> 1957
13:28:45:640 -> 2199
13:28:45:651 -> 1982
13:28:45:660 -> 2179
13:28:45:670 -> 1954
13:28:45:680 -> 2190
13:28:45:691 -> 1982
13:28:45:704 -> 2249
13:28:45:710 -> 1939
13:28:45:720 -> 2239
13:28:45:731 -> 1949
13:28:45:741 -> 2233
13:28:45:751 -> 1981
13:28:45:762 -> 2216
13:28:45:771 -> 1978
13:28:45:781 -> 2281
13:28:45:791 -> 1962
13:28:45:801 -> 2253
13:28:45:811 -> 1998
13:28:45:823 -> 2230
13:28:45:833 -> 1964
13:28:45:841 -> 2245
13:28:45:853 -> 1962
13:28:45:861 -> 2257
13:28:45:871 -> 1948
13:28:45:881 -> 2236
13:28:45:891 -> 1943
13:28:45:901 -> 2246
13:28:45:911 -> 1944
13:28:45:921 -> 2237
13:28:45:932 -> 1943
13:28:45:967 -> 2217
13:28:46:022 -> 1958
13:28:46:022 -> 2210
13:28:46:022 -> 1912
13:28:46:022 -> 2193
13:28:46:022 -> 1954
13:28:46:022 -> 2182
13:28:46:036 -> 1941
13:28:46:036 -> 2221
13:28:46:036 -> 1976
13:28:46:045 -> 2181
13:28:46:071 -> 1933
13:28:46:071 -> 2181
13:28:46:082 -> 1930
13:28:46:099 -> 2134
13:28:46:099 -> 1963
13:28:46:105 -> 2191
13:28:46:113 -> 1978
13:28:46:122 -> 2145
13:28:46:132 -> 1950
13:28:46:143 -> 2105
13:28:46:152 -> 2050
13:28:46:162 -> 2169
13:28:46:172 -> 1974
13:28:46:182 -> 2150
13:28:46:194 -> 2002
13:28:46:203 -> 2127
13:28:46:213 -> 2000
13:28:46:223 -> 2164
13:28:46:233 -> 1998
13:28:46:243 -> 2149
13:28:46:253 -> 1990
13:28:46:263 -> 2128
13:28:46:273 -> 2007
13:28:46:283 -> 2104
13:28:46:293 -> 2007
13:28:46:303 -> 2127
13:28:46:314 -> 2055
13:28:46:323 -> 2141
13:28:46:333 -> 2051
13:28:46:343 -> 2151
13:28:46:362 -> 2035
13:28:46:363 -> 2140
13:28:46:373 -> 2068
13:28:46:383 -> 2128
13:28:46:393 -> 2030
13:28:46:403 -> 2123
13:28:46:414 -> 2029
13:28:46:424 -> 2121
13:28:46:434 -> 2062
13:28:46:444 -> 2130
13:28:46:454 -> 2051
13:28:46:464 -> 2112
13:28:46:474 -> 2067
13:28:46:484 -> 2119
13:28:46:494 -> 2066
13:28:46:504 -> 2117
13:28:46:515 -> 2073
13:28:46:562 -> 2062
13:28:46:565 -> 2092
13:28:46:565 -> 2132
13:28:46:565 -> 2096
13:28:46:565 -> 2116
13:28:46:574 -> 2077
13:28:46:584 -> 2133
13:28:46:594 -> 2095
13:28:46:605 -> 2045
13:28:46:614 -> 2082
13:28:46:624 -> 2095
13:28:46:639 -> 2073
13:28:46:645 -> 2078
13:28:46:658 -> 2075
13:28:46:665 -> 2091
13:28:46:675 -> 2099
13:28:46:685 -> 2078
13:28:46:695 -> 2061
13:28:46:705 -> 2050
13:28:46:715 -> 2089
13:28:46:725 -> 2080
13:28:46:735 -> 2100
13:28:46:745 -> 2025
13:28:46:755 -> 2090
13:28:46:765 -> 2022
13:28:46:775 -> 2061
13:28:46:786 -> 2009
13:28:46:795 -> 2091
13:28:46:805 -> 2047
13:28:46:815 -> 2042
13:28:46:825 -> 2057
13:28:46:835 -> 2080
13:28:46:845 -> 2008
13:28:46:856 -> 2119
13:28:46:867 -> 2000
13:28:46:876 -> 2068
13:28:46:886 -> 2002
13:28:46:896 -> 2060
13:28:46:906 -> 1970
13:28:46:916 -> 2089
13:28:46:926 -> 1992
13:28:46:937 -> 2086
13:28:46:946 -> 2033
13:28:46:956 -> 2079
13:28:46:966 -> 2018
13:28:46:976 -> 2109
13:28:46:986 -> 2017
13:28:46:996 -> 2035
13:28:47:007 -> 2066
13:28:47:016 -> 2039
13:28:47:026 -> 2036
13:28:47:036 -> 2056
13:28:47:047 -> 2032
13:28:47:056 -> 2083
13:28:47:096 -> 2132
13:28:47:100 -> 2131
13:28:47:100 -> 2094
13:28:47:100 -> 2111
13:28:47:107 -> 2110
13:28:47:117 -> 2149
13:28:47:127 -> 2074
13:28:47:137 -> 2007
13:28:47:159 -> 2134
13:28:47:165 -> 2073
13:28:47:170 -> 1951
13:28:47:178 -> 2101
13:28:47:187 -> 2169
13:28:47:197 -> 2131
13:28:47:208 -> 2148
13:28:47:217 -> 2143
13:28:47:227 -> 1990
13:28:47:237 -> 1843
13:28:47:247 -> 2171
13:28:47:257 -> 2112
13:28:47:268 -> 2056
13:28:47:277 -> 2125
13:28:47:287 -> 2173
13:28:47:298 -> 2130
13:28:47:308 -> 2089
13:28:47:326 -> 1872
13:28:47:327 -> 2181
13:28:47:338 -> 2102
13:28:47:348 -> 2130
13:28:47:358 -> 1868
13:28:47:368 -> 1899
13:28:47:378 -> 2023
13:28:47:388 -> 2290
13:28:47:398 -> 2326
13:28:47:408 -> 1904
13:28:47:418 -> 2065
13:28:47:428 -> 1996
13:28:47:438 -> 2131
13:28:47:448 -> 1696
13:28:47:458 -> 1970
13:28:47:468 -> 1894
13:28:47:478 -> 2446
13:28:47:488 -> 1531
13:28:47:498 -> 2080
13:28:47:508 -> 2210
13:28:47:519 -> 1840
13:28:47:528 -> 1722
13:28:47:540 -> 2328
13:28:47:549 -> 1397
13:28:47:559 -> 2449
13:28:47:569 -> 2035
13:28:47:579 -> 1836
13:28:47:589 -> 1853
13:28:47:639 -> 1916
13:28:47:641 -> 2268
13:28:47:641 -> 1399
13:28:47:641 -> 1824
13:28:47:641 -> 1417
13:28:47:649 -> 2186
13:28:47:659 -> 2091
13:28:47:669 -> 1863
13:28:47:679 -> 1695
13:28:47:689 -> 1855
13:28:47:699 -> 2338
13:28:47:709 -> 2062
13:28:47:719 -> 2020
13:28:47:731 -> 1968
13:28:47:762 -> 2372
13:28:47:774 -> 2024
13:28:47:774 -> 2576
13:28:47:774 -> 1848
13:28:47:808 -> 2551
13:28:47:808 -> 1645
13:28:47:808 -> 2417
13:28:47:815 -> 2049
13:28:47:820 -> 2470
13:28:47:830 -> 1403
13:28:47:847 -> 2445
13:28:47:856 -> 2089
13:28:47:865 -> 2776
13:28:47:870 -> 1759
13:28:47:880 -> 2071
13:28:47:890 -> 2143
13:28:47:900 -> 2273
13:28:47:910 -> 1940
13:28:47:925 -> 1997
13:28:47:930 -> 858
13:28:47:940 -> 2719
13:28:47:950 -> 2105
13:28:47:960 -> 2083
13:28:47:971 -> 2233
13:28:47:981 -> 2166
13:28:47:991 -> 1535
13:28:48:005 -> 2358
13:28:48:015 -> 2032
13:28:48:028 -> 2290
13:28:48:031 -> 2266
13:28:48:041 -> 1975
13:28:48:051 -> 2266
13:28:48:061 -> 2400
13:28:48:072 -> 1830
13:28:48:081 -> 2185
13:28:48:091 -> 2050
13:28:48:101 -> 2232
13:28:48:111 -> 1732
13:28:48:121 -> 2083
13:28:48:131 -> 2180
13:28:48:178 -> 2267
13:28:48:182 -> 1906
13:28:48:182 -> 2156
13:28:48:182 -> 1720
13:28:48:182 -> 2378
13:28:48:192 -> 1472
13:28:48:201 -> 2132
13:28:48:213 -> 1843
13:28:48:223 -> 1901
13:28:48:232 -> 2121
13:28:48:242 -> 2090
13:28:48:252 -> 2250
13:28:48:262 -> 1914
13:28:48:272 -> 2179
13:28:48:282 -> 2075
13:28:48:292 -> 2260
13:28:48:302 -> 1617
13:28:48:312 -> 2117
13:28:48:322 -> 2233
13:28:48:332 -> 2173
13:28:48:342 -> 2318
13:28:48:352 -> 1800
13:28:48:362 -> 2272
13:28:48:373 -> 2232
13:28:48:382 -> 2406
13:28:48:392 -> 2055
13:28:48:402 -> 2078
13:28:48:412 -> 1796
13:28:48:422 -> 1634
13:28:48:432 -> 2163
13:28:48:442 -> 1722
13:28:48:453 -> 2546
13:28:48:463 -> 2411
13:28:48:480 -> 2011
13:28:48:483 -> 2160
13:28:48:493 -> 1943
13:28:48:503 -> 1651
13:28:48:513 -> 2181
13:28:48:523 -> 2178
13:28:48:533 -> 2475
13:28:48:543 -> 2470
13:28:48:554 -> 2008
13:28:48:563 -> 2042
13:28:48:573 -> 1509
13:28:48:583 -> 1573
13:28:48:593 -> 2170
13:28:48:603 -> 2096
13:28:48:613 -> 2542
13:28:48:623 -> 2421
13:28:48:633 -> 1910
13:28:48:644 -> 2315
13:28:48:653 -> 2096
13:28:48:663 -> 1559
13:28:48:674 -> 1832
13:28:48:710 -> 1529
13:28:48:713 -> 2024
13:28:48:713 -> 2098
13:28:48:714 -> 1925
13:28:48:729 -> 2705
13:28:48:734 -> 2842
13:28:48:744 -> 2047
13:28:48:754 -> 1927
13:28:48:766 -> 2106
13:28:48:774 -> 2267
13:28:48:784 -> 1811
13:28:48:794 -> 2307
13:28:48:804 -> 2030
13:28:48:815 -> 2552
13:28:48:824 -> 2541
13:28:48:834 -> 1520
13:28:48:845 -> 2280
13:28:48:854 -> 1471
13:28:48:864 -> 2590
13:28:48:874 -> 2169
13:28:48:884 -> 1766
13:28:48:894 -> 1640
13:28:48:904 -> 2276
13:28:48:917 -> 2853
13:28:48:925 -> 2152
13:28:48:935 -> 1987
13:28:48:945 -> 1819
13:28:48:955 -> 1445
13:28:48:965 -> 1834
13:28:48:975 -> 2422
13:28:48:985 -> 2311
13:28:48:995 -> 1986
13:28:49:005 -> 2403
13:28:49:015 -> 2428
13:28:49:025 -> 792
13:28:49:035 -> 1679
13:28:49:045 -> 2621
13:28:49:055 -> 2367
13:28:49:077 -> 2664
13:28:49:079 -> 2397
13:28:49:085 -> 2498
13:28:49:095 -> 1767
13:28:49:106 -> 2650
13:28:49:116 -> 2335
13:28:49:126 -> 2595
13:28:49:136 -> 2210
13:28:49:146 -> 1793
13:28:49:157 -> 1559
13:28:49:166 -> 2018
13:28:49:176 -> 2200
13:28:49:188 -> 2531
13:28:49:197 -> 1808
13:28:49:206 -> 1743
13:28:49:232 -> 2400
13:28:49:234 -> 2245
13:28:49:236 -> 2333
13:28:49:246 -> 974
13:28:49:256 -> 2487
13:28:49:266 -> 1824
13:28:49:276 -> 2234
13:28:49:286 -> 1547
13:28:49:296 -> 1944
13:28:49:306 -> 2160
13:28:49:316 -> 2103
13:28:49:326 -> 2058
13:28:49:336 -> 2136
13:28:49:350 -> 2096
13:28:49:358 -> 2160
13:28:49:367 -> 2147
13:28:49:378 -> 2092
13:28:49:387 -> 2078
13:28:49:397 -> 2041
13:28:49:420 -> 2057
13:28:49:435 -> 2073
13:28:49:435 -> 2053
13:28:49:464 -> 2055
13:28:49:464 -> 2056
13:28:49:464 -> 2148
13:28:49:480 -> 2020
13:28:49:480 -> 2148
13:28:49:487 -> 1946
13:28:49:499 -> 2075
13:28:49:508 -> 2003
13:28:49:519 -> 2121
13:28:49:527 -> 2040
13:28:49:537 -> 2127
13:28:49:547 -> 1995
13:28:49:557 -> 2146
13:28:49:567 -> 2023
13:28:49:577 -> 2145
13:28:49:587 -> 2037
13:28:49:598 -> 2096
13:28:49:609 -> 2012
13:28:49:618 -> 2165
13:28:49:628 -> 1982
13:28:49:638 -> 2167
13:28:49:648 -> 2080
13:28:49:658 -> 2125
13:28:49:668 -> 2006
13:28:49:678 -> 2174
13:28:49:688 -> 2022
13:28:49:698 -> 2169
13:28:49:708 -> 2001
13:28:49:721 -> 2174
13:28:49:728 -> 1885
13:28:49:769 -> 2216
13:28:49:774 -> 1990
13:28:49:774 -> 2221
13:28:49:774 -> 1972
13:28:49:780 -> 2262
13:28:49:788 -> 2034
13:28:49:798 -> 2069
13:28:49:808 -> 2003
13:28:49:819 -> 2204
13:28:49:829 -> 1943
13:28:49:839 -> 2219
13:28:49:849 -> 1952
13:28:49:859 -> 2250
13:28:49:869 -> 1894
13:28:49:879 -> 2210
13:28:49:889 -> 1950
13:28:49:899 -> 2247
13:28:49:909 -> 1944
13:28:49:919 -> 2215
13:28:49:929 -> 1933
13:28:49:939 -> 2247
13:28:49:950 -> 1986
13:28:49:959 -> 2222
13:28:49:969 -> 1991
13:28:49:979 -> 2164
13:28:49:989 -> 1913
13:28:49:999 -> 2204
13:28:50:009 -> 1996
13:28:50:019 -> 2222
13:28:50:029 -> 1971
13:28:50:039 -> 2153
13:28:50:050 -> 1993
13:28:50:060 -> 2090
13:28:50:070 -> 1974
13:28:50:080 -> 2195
13:28:50:090 -> 1968
13:28:50:100 -> 2194
13:28:50:110 -> 1962
13:28:50:120 -> 2184
13:28:50:130 -> 1971
13:28:50:140 -> 2126
13:28:50:150 -> 1971
13:28:50:160 -> 2220
13:28:50:178 -> 1984
13:28:50:180 -> 2201
13:28:50:190 -> 1961
13:28:50:201 -> 2182
13:28:50:211 -> 1990
13:28:50:220 -> 2167
13:28:50:231 -> 2013
13:28:50:241 -> 2140
13:28:50:251 -> 2058
13:28:50:261 -> 2123
13:28:50:298 -> 2015
13:28:50:300 -> 2153
13:28:50:300 -> 1995
13:28:50:301 -> 2155
13:28:50:313 -> 2051
13:28:50:321 -> 2046
13:28:50:331 -> 2038
13:28:50:341 -> 2134
13:28:50:351 -> 2030
13:28:50:361 -> 2142
13:28:50:371 -> 2035
13:28:50:381 -> 2148
13:28:50:391 -> 2041
13:28:50:407 -> 2169
13:28:50:411 -> 2089
13:28:50:421 -> 2163
13:28:50:431 -> 2063
13:28:50:441 -> 2156
13:28:50:451 -> 2050
13:28:50:461 -> 2149
13:28:50:471 -> 2074
13:28:50:481 -> 2198
13:28:50:491 -> 2054
13:28:50:502 -> 2197
13:28:50:512 -> 2096
13:28:50:522 -> 2142
13:28:50:532 -> 2077
13:28:50:542 -> 2138
13:28:50:552 -> 2039
13:28:50:563 -> 2159
13:28:50:572 -> 2050
13:28:50:582 -> 2128
13:28:50:592 -> 2048
13:28:50:602 -> 2150
13:28:50:612 -> 2068
13:28:50:622 -> 2098
13:28:50:632 -> 2049
13:28:50:642 -> 2088
13:28:50:652 -> 2068
13:28:50:662 -> 2095
13:28:50:672 -> 2042
13:28:50:682 -> 2066
13:28:50:692 -> 2041
13:28:50:702 -> 2046
13:28:50:713 -> 2064
13:28:50:722 -> 2064
13:28:50:733 -> 2048
13:28:50:743 -> 2031
13:28:50:753 -> 2033
13:28:50:764 -> 2035
13:28:50:773 -> 2037
13:28:50:783 -> 2023
13:28:50:793 -> 2033
13:28:50:821 -> 2072
13:28:50:822 -> 2025
13:28:50:823 -> 2057
13:28:50:833 -> 2083
13:28:50:844 -> 2064
13:28:50:853 -> 2054
13:28:50:863 -> 1992
13:28:50:873 -> 2068
13:28:50:883 -> 1993
13:28:50:893 -> 2103
13:28:50:903 -> 1979
13:28:50:914 -> 2128
13:28:50:923 -> 1986
13:28:50:933 -> 2140
13:28:50:944 -> 1989
13:28:50:956 -> 2143
13:28:50:964 -> 1994
13:28:50:974 -> 2125
13:28:50:984 -> 2016
13:28:50:994 -> 2096
13:28:51:004 -> 2018
13:28:51:016 -> 2065
13:28:51:024 -> 2064
13:28:51:034 -> 2022
13:28:51:044 -> 2101
13:28:51:054 -> 1976
13:28:51:065 -> 2083
13:28:51:075 -> 2047
13:28:51:084 -> 2113
13:28:51:094 -> 2080
13:28:51:104 -> 2096
13:28:51:115 -> 2075
13:28:51:124 -> 2130
13:28:51:136 -> 2100
13:28:51:144 -> 2114
13:28:51:154 -> 2046
13:28:51:164 -> 2129
13:28:51:174 -> 2067
13:28:51:190 -> 2166
13:28:51:195 -> 2040
13:28:51:205 -> 2132
13:28:51:215 -> 2086
13:28:51:225 -> 2119
13:28:51:236 -> 2120
13:28:51:245 -> 2096
13:28:51:255 -> 2106
13:28:51:265 -> 2070
13:28:51:277 -> 2128
13:28:51:285 -> 2050
13:28:51:296 -> 2136
13:28:51:305 -> 2049
13:28:51:316 -> 2130
13:28:51:352 -> 2055
13:28:51:386 -> 2087
13:28:51:386 -> 2076
13:28:51:386 -> 2066
13:28:51:386 -> 2057
13:28:51:386 -> 2102
13:28:51:386 -> 2066
13:28:51:417 -> 2074
13:28:51:417 -> 2060
13:28:51:417 -> 2071
13:28:51:431 -> 2067
13:28:51:437 -> 2034
13:28:51:446 -> 2037
13:28:51:467 -> 2150
13:28:51:467 -> 2023
13:28:51:476 -> 2111
13:28:51:493 -> 2037
13:28:51:496 -> 2104
13:28:51:508 -> 2036
13:28:51:516 -> 2140
13:28:51:527 -> 1976
13:28:51:536 -> 2146
13:28:51:546 -> 2043
13:28:51:556 -> 2129
13:28:51:566 -> 2013
13:28:51:576 -> 2134
13:28:51:586 -> 1984
13:28:51:597 -> 2151
13:28:51:606 -> 2017
13:28:51:616 -> 1997
13:28:51:626 -> 1987
13:28:51:637 -> 2145
13:28:51:647 -> 2006
13:28:51:659 -> 2043
13:28:51:668 -> 2054
13:28:51:677 -> 2120
13:28:51:687 -> 1914
13:28:51:697 -> 2097
13:28:51:707 -> 1960
13:28:51:717 -> 2197
13:28:51:727 -> 1882
13:28:51:737 -> 2199
13:28:51:747 -> 1982
13:28:51:757 -> 2221
13:28:51:769 -> 2064
13:28:51:777 -> 2176
13:28:51:787 -> 1976
13:28:51:797 -> 2300
13:28:51:807 -> 1965
13:28:51:822 -> 2254
13:28:51:827 -> 1986
13:28:51:838 -> 2245
13:28:51:848 -> 1925
13:28:51:884 -> 2254
13:28:51:885 -> 1687
13:28:51:885 -> 2237
13:28:51:888 -> 1983
13:28:51:899 -> 2315
13:28:51:909 -> 2018
13:28:51:918 -> 2396
13:28:51:930 -> 1927
13:28:51:939 -> 2217
13:28:51:948 -> 2005
13:28:51:958 -> 2311
13:28:51:968 -> 1999
13:28:51:978 -> 2096
13:28:51:991 -> 2068
13:28:51:998 -> 2334
13:28:52:008 -> 1999
13:28:52:018 -> 2187
13:28:52:028 -> 1950
13:28:52:039 -> 2178
13:28:52:048 -> 2000
13:28:52:058 -> 2250
13:28:52:069 -> 2075
13:28:52:081 -> 2053
13:28:52:089 -> 1940
13:28:52:099 -> 2076
13:28:52:114 -> 2048
13:28:52:119 -> 2166
13:28:52:129 -> 2022
13:28:52:139 -> 2296
13:28:52:149 -> 1969
13:28:52:159 -> 2307
13:28:52:169 -> 1969
13:28:52:179 -> 2098
13:28:52:189 -> 1928
13:28:52:201 -> 2007
13:28:52:209 -> 1824
13:28:52:230 -> 2163
13:28:52:231 -> 2011
13:28:52:239 -> 2093
13:28:52:250 -> 2229
13:28:52:259 -> 2568
13:28:52:269 -> 2023
13:28:52:279 -> 2284
13:28:52:289 -> 2216
13:28:52:300 -> 2325
13:28:52:310 -> 2256
13:28:52:320 -> 1798
13:28:52:331 -> 2457
13:28:52:340 -> 1659
13:28:52:350 -> 2507
13:28:52:360 -> 2501
13:28:52:370 -> 1603
13:28:52:380 -> 2536
13:28:52:417 -> 1465
13:28:52:422 -> 2416
13:28:52:422 -> 1912
13:28:52:422 -> 1142
13:28:52:430 -> 2396
13:28:52:440 -> 1923
13:28:52:451 -> 2410
13:28:52:460 -> 1289
13:28:52:470 -> 2463
13:28:52:481 -> 2073
13:28:52:490 -> 2173
13:28:52:500 -> 1813
13:28:52:510 -> 1758
13:28:52:520 -> 2590
13:28:52:530 -> 1947
13:28:52:541 -> 2132
13:28:52:551 -> 2155
13:28:52:561 -> 1429
13:28:52:571 -> 1424
13:28:52:581 -> 1331
13:28:52:591 -> 1885
13:28:52:602 -> 2006
13:28:52:611 -> 2859
13:28:52:621 -> 2243
13:28:52:631 -> 1974
13:28:52:641 -> 1407
13:28:52:651 -> 1524
13:28:52:661 -> 2144
13:28:52:672 -> 2279
13:28:52:684 -> 2115
13:28:52:691 -> 1515
13:28:52:701 -> 2145
13:28:52:711 -> 2047
13:28:52:721 -> 1680
13:28:52:731 -> 2420
13:28:52:741 -> 1784
13:28:52:751 -> 2270
13:28:52:765 -> 2296
13:28:52:771 -> 1691
13:28:52:782 -> 2762
13:28:52:792 -> 2336
13:28:52:802 -> 1598
13:28:52:812 -> 2208
13:28:52:822 -> 1547
13:28:52:832 -> 1314
13:28:52:842 -> 1679
13:28:52:852 -> 2176
13:28:52:862 -> 2362
13:28:52:872 -> 1988
13:28:52:882 -> 1697
13:28:52:892 -> 2627
13:28:52:902 -> 1910
13:28:52:912 -> 1506
13:28:52:939 -> 1515
13:28:52:940 -> 1709
13:28:52:942 -> 1847
13:28:52:952 -> 2014
13:28:52:962 -> 1420
13:28:52:975 -> 2420
13:28:52:983 -> 2297
13:28:52:993 -> 2168
13:28:53:003 -> 1887
13:28:53:013 -> 2428
13:28:53:023 -> 2386
13:28:53:034 -> 2287
13:28:53:043 -> 2714
13:28:53:053 -> 2086
13:28:53:064 -> 1400
13:28:53:073 -> 2281
13:28:53:085 -> 2406
13:28:53:093 -> 1939
13:28:53:120 -> 2331
13:28:53:138 -> 1976
13:28:53:138 -> 2324
13:28:53:138 -> 2387
13:28:53:166 -> 2419
13:28:53:166 -> 1864
13:28:53:166 -> 2332
13:28:53:194 -> 1469
13:28:53:194 -> 2514
13:28:53:195 -> 2260
13:28:53:214 -> 1995
13:28:53:214 -> 2078
13:28:53:224 -> 1809
13:28:53:234 -> 2370
13:28:53:255 -> 1666
13:28:53:257 -> 1777
13:28:53:264 -> 2098
13:28:53:275 -> 2031
13:28:53:284 -> 1778
13:28:53:294 -> 2369
13:28:53:304 -> 2205
13:28:53:315 -> 2184
13:28:53:324 -> 1470
13:28:53:335 -> 2443
13:28:53:344 -> 2330
13:28:53:354 -> 2593
13:28:53:364 -> 2334
13:28:53:374 -> 1963
13:28:53:385 -> 1585
13:28:53:394 -> 2019
13:28:53:404 -> 2470
13:28:53:414 -> 2446
13:28:53:425 -> 1992
13:28:53:435 -> 2613
13:28:53:464 -> 2483
13:28:53:472 -> 1746
13:28:53:472 -> 1951
13:28:53:478 -> 2611
13:28:53:486 -> 1981
13:28:53:495 -> 2248
13:28:53:505 -> 1452
13:28:53:515 -> 2328
13:28:53:525 -> 2360
13:28:53:535 -> 1813
13:28:53:545 -> 1689
13:28:53:555 -> 2645
13:28:53:565 -> 2103
13:28:53:576 -> 2226
13:28:53:585 -> 2223
13:28:53:595 -> 1719
13:28:53:605 -> 1808
13:28:53:615 -> 2353
13:28:53:626 -> 2265
13:28:53:635 -> 2686
13:28:53:646 -> 1765
13:28:53:655 -> 2431
13:28:53:673 -> 1707
13:28:53:676 -> 2423
13:28:53:686 -> 2157
13:28:53:696 -> 2926
13:28:53:706 -> 1640
13:28:53:716 -> 3214
13:28:53:726 -> 2054
13:28:53:736 -> 592
13:28:53:749 -> 2491
13:28:53:756 -> 2117
13:28:53:767 -> 2074
13:28:53:776 -> 2597
13:28:53:786 -> 742
13:28:53:796 -> 2127
13:28:53:806 -> 1731
13:28:53:816 -> 2753
13:28:53:826 -> 2432
13:28:53:836 -> 2729
13:28:53:846 -> 1519
13:28:53:857 -> 2690
13:28:53:866 -> 1870
13:28:53:876 -> 2125
13:28:53:887 -> 1952
13:28:53:897 -> 2226
13:28:53:910 -> 1940
13:28:53:922 -> 2186
13:28:53:930 -> 1876
13:28:53:937 -> 2224
13:28:53:948 -> 1976
13:28:53:957 -> 2180
13:28:54:000 -> 1877
13:28:54:002 -> 2254
13:28:54:002 -> 1959
13:28:54:002 -> 2146
13:28:54:007 -> 1958
13:28:54:017 -> 2196
13:28:54:027 -> 1834
13:28:54:037 -> 2184
13:28:54:047 -> 1931
13:28:54:058 -> 2195
13:28:54:067 -> 1939
13:28:54:078 -> 2185
13:28:54:089 -> 1992
13:28:54:097 -> 2119
13:28:54:107 -> 1925
13:28:54:117 -> 2177
13:28:54:128 -> 2030
13:28:54:138 -> 2162
13:28:54:150 -> 2036
13:28:54:162 -> 2193
13:28:54:168 -> 2015
13:28:54:178 -> 2156
13:28:54:188 -> 2043
13:28:54:198 -> 2204
13:28:54:208 -> 1990
13:28:54:218 -> 2233
13:28:54:228 -> 2002
13:28:54:238 -> 2134
13:28:54:248 -> 2037
13:28:54:258 -> 2169
13:28:54:268 -> 2050
13:28:54:278 -> 2086
13:28:54:289 -> 2026
13:28:54:298 -> 2137
13:28:54:315 -> 2080
13:28:54:318 -> 2146
13:28:54:328 -> 2040
13:28:54:339 -> 2147
13:28:54:349 -> 2002
13:28:54:359 -> 2094
13:28:54:369 -> 2088
13:28:54:379 -> 2071
13:28:54:389 -> 2097
13:28:54:400 -> 2126
13:28:54:409 -> 2111
13:28:54:419 -> 2030
13:28:54:429 -> 2073
13:28:54:439 -> 2159
13:28:54:449 -> 2080
13:28:54:459 -> 2113
13:28:54:469 -> 2036
13:28:54:479 -> 2134
13:28:54:489 -> 2107
13:28:54:499 -> 2088
13:28:54:530 -> 2088
13:28:54:533 -> 2102
13:28:54:533 -> 2063
13:28:54:539 -> 2107
13:28:54:549 -> 2076
13:28:54:559 -> 2071
13:28:54:569 -> 2058
13:28:54:580 -> 2050
13:28:54:590 -> 2100
13:28:54:623 -> 2109
13:28:54:623 -> 2042
13:28:54:623 -> 2088
13:28:54:678 -> 2059
13:28:54:678 -> 2074
13:28:54:678 -> 2055
13:28:54:678 -> 2086
13:28:54:700 -> 2058
13:28:54:700 -> 2044
13:28:54:700 -> 2028
13:28:54:700 -> 2050
13:28:54:712 -> 2099
13:28:54:722 -> 2083
13:28:54:740 -> 2092
13:28:54:742 -> 2059
13:28:54:758 -> 2066
13:28:54:766 -> 2080
13:28:54:773 -> 2058
13:28:54:780 -> 2067
13:28:54:791 -> 2029
13:28:54:801 -> 2077
13:28:54:811 -> 2025
13:28:54:821 -> 2067
13:28:54:831 -> 2113
13:28:54:841 -> 2006
13:28:54:851 -> 2130
13:28:54:863 -> 1999
13:28:54:871 -> 2152
13:28:54:881 -> 2003
13:28:54:891 -> 2118
13:28:54:901 -> 2010
13:28:54:911 -> 2097
13:28:54:921 -> 2027
13:28:54:931 -> 2139
13:28:54:941 -> 2042
13:28:54:951 -> 2113
13:28:54:961 -> 2063
13:28:54:971 -> 2121
13:28:54:981 -> 2083
13:28:54:991 -> 2094
13:28:55:001 -> 2116
13:28:55:012 -> 2124
13:28:55:021 -> 2091
13:28:55:068 -> 2092
13:28:55:074 -> 2153
13:28:55:074 -> 2100
13:28:55:074 -> 2123
13:28:55:074 -> 2057
13:28:55:082 -> 2130
13:28:55:092 -> 2101
13:28:55:102 -> 2121
13:28:55:113 -> 2089
13:28:55:122 -> 2147
13:28:55:132 -> 2017
13:28:55:143 -> 2150
13:28:55:152 -> 2098
13:28:55:162 -> 2114
13:28:55:174 -> 2113
13:28:55:182 -> 2121
13:28:55:192 -> 2093
13:28:55:203 -> 2075
13:28:55:212 -> 2072
13:28:55:223 -> 2081
13:28:55:232 -> 2092
13:28:55:242 -> 2080
13:28:55:253 -> 2090
13:28:55:263 -> 2093
13:28:55:273 -> 2060
13:28:55:283 -> 2050
13:28:55:293 -> 2067
13:28:55:303 -> 2100
13:28:55:313 -> 2074
13:28:55:327 -> 2071
13:28:55:333 -> 2054
13:28:55:343 -> 2054
13:28:55:353 -> 2054
13:28:55:363 -> 2048
13:28:55:373 -> 2042
13:28:55:383 -> 2053
13:28:55:393 -> 2079
13:28:55:403 -> 2024
13:28:55:413 -> 2096
13:28:55:423 -> 2011
13:28:55:433 -> 2095
13:28:55:445 -> 1990
13:28:55:453 -> 2109
13:28:55:465 -> 2010
13:28:55:473 -> 2112
13:28:55:484 -> 1993
13:28:55:494 -> 2098
13:28:55:504 -> 2020
13:28:55:525 -> 2116
13:28:55:527 -> 1989
13:28:55:534 -> 2138
13:28:55:545 -> 1993
13:28:55:554 -> 2115
13:28:55:564 -> 2002
13:28:55:600 -> 2094
13:28:55:602 -> 2012
13:28:55:602 -> 2150
13:28:55:604 -> 2018
13:28:55:614 -> 2139
13:28:55:624 -> 2023
13:28:55:634 -> 2155
13:28:55:644 -> 1998
13:28:55:654 -> 2131
13:28:55:664 -> 2014
13:28:55:674 -> 2183
13:28:55:684 -> 1988
13:28:55:694 -> 2197
13:28:55:704 -> 1942
13:28:55:716 -> 2230
13:28:55:725 -> 1968
13:28:55:735 -> 2225
13:28:55:749 -> 1916
13:28:55:755 -> 2228
13:28:55:765 -> 1940
13:28:55:775 -> 2256
13:28:55:785 -> 1990
13:28:55:795 -> 2235
13:28:55:805 -> 1973
13:28:55:816 -> 2251
13:28:55:825 -> 1948
13:28:55:835 -> 2259
13:28:55:845 -> 1975
13:28:55:855 -> 2223
13:28:55:865 -> 1970
13:28:55:875 -> 2212
13:28:55:885 -> 1939
13:28:55:897 -> 2227
13:28:55:905 -> 1954
13:28:55:916 -> 2224
13:28:55:925 -> 1950
13:28:55:935 -> 2230
13:28:55:946 -> 1978
13:28:55:956 -> 2202
13:28:55:966 -> 1940
13:28:55:993 -> 2198
13:28:55:996 -> 1954
13:28:55:996 -> 2201
13:28:56:006 -> 1922
13:28:56:016 -> 2173
13:28:56:028 -> 1927
13:28:56:036 -> 2179
13:28:56:046 -> 1914
13:28:56:056 -> 2173
13:28:56:066 -> 1949
13:28:56:076 -> 2183
13:28:56:090 -> 1952
13:28:56:097 -> 2206
13:28:56:134 -> 1933
13:28:56:136 -> 2189
13:28:56:136 -> 2003
13:28:56:137 -> 2174
13:28:56:147 -> 2004
13:28:56:156 -> 2118
13:28:56:166 -> 2016
13:28:56:177 -> 2183
13:28:56:187 -> 2012
13:28:56:207 -> 2154
13:28:56:223 -> 1989
13:28:56:223 -> 2151
13:28:56:256 -> 2043
13:28:56:256 -> 2133
13:28:56:256 -> 2042
13:28:56:274 -> 2175
13:28:56:274 -> 2021
13:28:56:284 -> 2176
13:28:56:287 -> 1996
13:28:56:308 -> 2216
13:28:56:318 -> 2060
13:28:56:318 -> 2117
13:28:56:327 -> 2103
13:28:56:337 -> 2141
13:28:56:347 -> 2138
13:28:56:357 -> 2047
13:28:56:369 -> 1956
13:28:56:378 -> 2075
13:28:56:388 -> 2153
13:28:56:398 -> 2232
13:28:56:408 -> 2047
13:28:56:418 -> 2079
13:28:56:428 -> 2065
13:28:56:439 -> 2178
13:28:56:448 -> 2089
13:28:56:459 -> 2212
13:28:56:468 -> 2075
13:28:56:478 -> 2021
13:28:56:488 -> 2191
13:28:56:508 -> 2001
13:28:56:509 -> 2006
13:28:56:518 -> 2345
13:28:56:528 -> 1909
13:28:56:538 -> 2213
13:28:56:548 -> 1477
13:28:56:558 -> 2452
13:28:56:568 -> 1883
13:28:56:579 -> 2424
13:28:56:588 -> 2309
13:28:56:598 -> 1799
13:28:56:608 -> 2270
13:28:56:619 -> 1998
13:28:56:629 -> 1665
13:28:56:659 -> 2270
13:28:56:660 -> 1974
13:28:56:660 -> 1894
13:28:56:669 -> 2491
13:28:56:679 -> 2114
13:28:56:689 -> 2205
13:28:56:699 -> 1909
13:28:56:712 -> 2078
13:28:56:719 -> 1835
13:28:56:729 -> 2455
13:28:56:739 -> 1910
13:28:56:750 -> 2204
13:28:56:760 -> 2199
13:28:56:769 -> 2371
13:28:56:779 -> 2166
13:28:56:789 -> 1925
13:28:56:800 -> 1348
13:28:56:809 -> 2413
13:28:56:820 -> 2243
13:28:56:829 -> 2066
13:28:56:839 -> 2139
13:28:56:850 -> 2046
13:28:56:860 -> 1064
13:28:56:870 -> 3270
13:28:56:880 -> 2575
13:28:56:890 -> 2366
13:28:56:900 -> 2131
13:28:56:910 -> 2397
13:28:56:920 -> 525
13:28:56:933 -> 2561
13:28:56:940 -> 2288
13:28:56:950 -> 1682
13:28:56:960 -> 2416
13:28:56:970 -> 2544
13:28:56:980 -> 2536
13:28:56:990 -> 2325
13:28:57:000 -> 2539
13:28:57:010 -> 2435
13:28:57:020 -> 2076
13:28:57:030 -> 2083
13:28:57:040 -> 1479
13:28:57:050 -> 2063
13:28:57:061 -> 2386
13:28:57:071 -> 2657
13:28:57:081 -> 1330
13:28:57:091 -> 2718
13:28:57:101 -> 2578
13:28:57:111 -> 1883
13:28:57:132 -> 2287
13:28:57:134 -> 1854
13:28:57:141 -> 2195
13:28:57:151 -> 2083
13:28:57:194 -> 2450
13:28:57:198 -> 2246
13:28:57:198 -> 2079
13:28:57:198 -> 1951
13:28:57:201 -> 2226
13:28:57:211 -> 2012
13:28:57:221 -> 2111
13:28:57:232 -> 2327
13:28:57:241 -> 2443
13:28:57:252 -> 2218
13:28:57:261 -> 2393
13:28:57:271 -> 2171
13:28:57:281 -> 2728
13:28:57:291 -> 2444
13:28:57:302 -> 2192
13:28:57:312 -> 1738
13:28:57:323 -> 1360
13:28:57:332 -> 1949
13:28:57:343 -> 2176
13:28:57:352 -> 2383
13:28:57:362 -> 2806
13:28:57:372 -> 1520
13:28:57:382 -> 2055
13:28:57:392 -> 1801
13:28:57:402 -> 2417
13:28:57:412 -> 2172
13:28:57:422 -> 2169
13:28:57:432 -> 1241
13:28:57:450 -> 2426
13:28:57:452 -> 1924
13:28:57:462 -> 2466
13:28:57:472 -> 2269
13:28:57:482 -> 2284
13:28:57:492 -> 2289
13:28:57:502 -> 2386
13:28:57:514 -> 2509
13:28:57:522 -> 2157
13:28:57:533 -> 1941
13:28:57:543 -> 2312
13:28:57:553 -> 1550
13:28:57:563 -> 1448
13:28:57:573 -> 2624
13:28:57:583 -> 2677
13:28:57:593 -> 2352
13:28:57:603 -> 1778
13:28:57:613 -> 2391
13:28:57:623 -> 2252
13:28:57:633 -> 1983
13:28:57:643 -> 1925
13:28:57:653 -> 2565
13:28:57:663 -> 2184
13:28:57:673 -> 2195
13:28:57:687 -> 2254
13:28:57:693 -> 1918
13:28:57:717 -> 2137
13:28:57:719 -> 2078
13:28:57:723 -> 1664
13:28:57:734 -> 1926
13:28:57:744 -> 2376
13:28:57:754 -> 1856
13:28:57:764 -> 1591
13:28:57:774 -> 2638
13:28:57:784 -> 1276
13:28:57:794 -> 1982
13:28:57:804 -> 2051
13:28:57:816 -> 2246
13:28:57:825 -> 2289
13:28:57:834 -> 2606
13:28:57:845 -> 2187
13:28:57:854 -> 1867
13:28:57:864 -> 2459
13:28:57:874 -> 2577
13:28:57:885 -> 2297
13:28:57:894 -> 2850
13:28:57:904 -> 1905
13:28:57:914 -> 2717
13:28:57:924 -> 1731
13:28:57:935 -> 2603
13:28:57:944 -> 1933
13:28:57:954 -> 2563
13:28:57:964 -> 1749
13:28:57:974 -> 2324
13:28:57:985 -> 2053
13:28:57:999 -> 2162
13:28:58:005 -> 2535
13:28:58:015 -> 1814
13:28:58:025 -> 1447
13:28:58:035 -> 2304
13:28:58:047 -> 2531
13:28:58:055 -> 1679
13:28:58:065 -> 1736
13:28:58:075 -> 2955
13:28:58:085 -> 1967
13:28:58:095 -> 2210
13:28:58:105 -> 1986
13:28:58:115 -> 2260
13:28:58:125 -> 1896
13:28:58:151 -> 2113
13:28:58:172 -> 2378
13:28:58:172 -> 1743
13:28:58:172 -> 2429
13:28:58:212 -> 2216
13:28:58:212 -> 2414
13:28:58:212 -> 2668
13:28:58:212 -> 2399
13:28:58:281 -> 2532
13:28:58:281 -> 1351
13:28:58:281 -> 2755
13:28:58:281 -> 2385
13:28:58:281 -> 2444
13:28:58:286 -> 2114
13:28:58:286 -> 2167
13:28:58:286 -> 2409
13:28:58:305 -> 1648
13:28:58:306 -> 2341
13:28:58:317 -> 2188
13:28:58:326 -> 2161
13:28:58:336 -> 2198
13:28:58:346 -> 2108
13:28:58:356 -> 1898
13:28:58:366 -> 2055
13:28:58:376 -> 2182
13:28:58:386 -> 1976
13:28:58:396 -> 2103
13:28:58:406 -> 2085
13:28:58:416 -> 2171
13:28:58:426 -> 1982
13:28:58:437 -> 2142
13:28:58:446 -> 2021
13:28:58:457 -> 2158
13:28:58:467 -> 1961
13:28:58:477 -> 2144
13:28:58:487 -> 2016
13:28:58:499 -> 2153
13:28:58:507 -> 2096
13:28:58:517 -> 2068
13:28:58:527 -> 2027
13:28:58:537 -> 2123
13:28:58:547 -> 2060
13:28:58:572 -> 2164
13:28:58:576 -> 2061
13:28:58:577 -> 2038
13:28:58:590 -> 2109
13:28:58:597 -> 2104
13:28:58:608 -> 2081
13:28:58:617 -> 2096
13:28:58:627 -> 2054
13:28:58:637 -> 2100
13:28:58:647 -> 1970
13:28:58:660 -> 2152
13:28:58:668 -> 2086
13:28:58:677 -> 2067
13:28:58:688 -> 2108
13:28:58:698 -> 2102
13:28:58:708 -> 2101
13:28:58:718 -> 2119
13:28:58:728 -> 2111
13:28:58:738 -> 2100
13:28:58:748 -> 2078
13:28:58:758 -> 2006
13:28:58:768 -> 2044
13:28:58:778 -> 2096
13:28:58:809 -> 2097
13:28:58:810 -> 2117
13:28:58:810 -> 2144
13:28:58:818 -> 2035
13:28:58:829 -> 2138
13:28:58:838 -> 2080
13:28:58:849 -> 2159
13:28:58:858 -> 2086
13:28:58:868 -> 2082
13:28:58:879 -> 2052
13:28:58:888 -> 2048
13:28:58:899 -> 2098
13:28:58:909 -> 2147
13:28:58:919 -> 2019
13:28:58:929 -> 2113
13:28:58:939 -> 2016
13:28:58:950 -> 2136
13:28:58:959 -> 2058
13:28:58:969 -> 2110
13:28:58:979 -> 2005
13:28:58:989 -> 2128
13:28:58:999 -> 1994
13:28:59:009 -> 2107
13:28:59:020 -> 2026
13:28:59:029 -> 2104
13:28:59:039 -> 2077
13:28:59:049 -> 2095
13:28:59:059 -> 2093
13:28:59:069 -> 2113
13:28:59:080 -> 2088
13:28:59:089 -> 2082
13:28:59:099 -> 2119
13:28:59:109 -> 2060
13:28:59:125 -> 2101
13:28:59:130 -> 2076
13:28:59:140 -> 2102
13:28:59:150 -> 2047
13:28:59:160 -> 2125
13:28:59:170 -> 2070
13:28:59:180 -> 2111
13:28:59:191 -> 2076
13:28:59:200 -> 2065
13:28:59:211 -> 2091
13:28:59:220 -> 2099
13:28:59:230 -> 2143
13:28:59:240 -> 2051
13:28:59:250 -> 2076
13:28:59:260 -> 2098
13:28:59:270 -> 2086
13:28:59:280 -> 2031
13:28:59:291 -> 2092
13:28:59:300 -> 2062
13:28:59:336 -> 2109
13:28:59:338 -> 2034
13:28:59:338 -> 2067
13:28:59:340 -> 2089
13:28:59:351 -> 2065
13:28:59:361 -> 2099
13:28:59:380 -> 2051
13:28:59:383 -> 2088
13:28:59:391 -> 2087
13:28:59:401 -> 2050
13:28:59:411 -> 2073
13:28:59:421 -> 2098
13:28:59:431 -> 2069
13:28:59:441 -> 2058
13:28:59:451 -> 2092
13:28:59:463 -> 2021
13:28:59:471 -> 2086
13:28:59:482 -> 2024
13:28:59:491 -> 2115
13:28:59:501 -> 2034
13:28:59:511 -> 2126
13:28:59:521 -> 2020
13:28:59:531 -> 2111
13:28:59:541 -> 2021
13:28:59:551 -> 2148
13:28:59:561 -> 1953
13:28:59:571 -> 2138
13:28:59:590 -> 1996
13:28:59:592 -> 2171
13:28:59:602 -> 2030
13:28:59:612 -> 2151
13:28:59:622 -> 1998
13:28:59:632 -> 2142
13:28:59:642 -> 1972
13:28:59:652 -> 2079
13:28:59:662 -> 1984
13:28:59:672 -> 2169
13:28:59:682 -> 1987
13:28:59:692 -> 2174
13:28:59:702 -> 2012
13:28:59:712 -> 2156
13:28:59:722 -> 1988
13:28:59:732 -> 2186
13:28:59:742 -> 1981
13:28:59:752 -> 2154
13:28:59:762 -> 1949
13:28:59:773 -> 2197
13:28:59:782 -> 1966
13:28:59:792 -> 2173
13:28:59:803 -> 1913
13:28:59:820 -> 2190
13:28:59:823 -> 1958
13:28:59:861 -> 2161
13:28:59:862 -> 1925
13:28:59:862 -> 2194
13:28:59:863 -> 1946
13:28:59:874 -> 2227
13:28:59:883 -> 1924
13:28:59:894 -> 2200
13:28:59:903 -> 1933
13:28:59:938 -> 2188
13:28:59:942 -> 1937
13:28:59:942 -> 2227
13:28:59:977 -> 1942
13:28:59:977 -> 2188
13:28:59:977 -> 1959
13:28:59:977 -> 2224
13:28:59:989 -> 1957
13:29:00:013 -> 2219
13:29:00:013 -> 2005
13:29:00:031 -> 2203
13:29:00:031 -> 1973
13:29:00:040 -> 2201
13:29:00:051 -> 1920
13:29:00:069 -> 2205
13:29:00:069 -> 1920
13:29:00:074 -> 2153
13:29:00:084 -> 1961
13:29:00:132 -> 2195
13:29:00:132 -> 1917
13:29:00:132 -> 2178
13:29:00:132 -> 1949
13:29:00:142 -> 2160
13:29:00:176 -> 1955
13:29:00:176 -> 2187
13:29:00:176 -> 1947
13:29:00:176 -> 2166
13:29:00:199 -> 1990
13:29:00:199 -> 2116
13:29:00:231 -> 1994
13:29:00:231 -> 2174
13:29:00:231 -> 1988
13:29:00:237 -> 2159
13:29:00:244 -> 1988
13:29:00:255 -> 2172
13:29:00:265 -> 2026
13:29:00:279 -> 2153
13:29:00:285 -> 2032
13:29:00:295 -> 2146
13:29:00:305 -> 2003
13:29:00:315 -> 2175
13:29:00:327 -> 2020
13:29:00:339 -> 2120
13:29:00:345 -> 2030
13:29:00:355 -> 2167
13:29:00:383 -> 2005
13:29:00:384 -> 2165
13:29:00:385 -> 2033
13:29:00:395 -> 2152
13:29:00:405 -> 2030
13:29:00:416 -> 2160
13:29:00:425 -> 2039
13:29:00:436 -> 2145
13:29:00:446 -> 2062
13:29:00:455 -> 2165
13:29:00:466 -> 2044
13:29:00:476 -> 2128
13:29:00:486 -> 2036
13:29:00:496 -> 2137
13:29:00:506 -> 2079
13:29:00:516 -> 2153
13:29:00:526 -> 2055
13:29:00:536 -> 2127
13:29:00:546 -> 2066
13:29:00:556 -> 2133
13:29:00:566 -> 2104
13:29:00:576 -> 2150
13:29:00:586 -> 2047
13:29:00:596 -> 2114
13:29:00:606 -> 2069
13:29:00:616 -> 2126
13:29:00:626 -> 2032
13:29:00:636 -> 2116
13:29:00:646 -> 2135
13:29:00:656 -> 2116
13:29:00:666 -> 1987
13:29:00:676 -> 2046
13:29:00:686 -> 2050
13:29:00:709 -> 2053
13:29:00:711 -> 2077
13:29:00:717 -> 2061
13:29:00:727 -> 2051
13:29:00:737 -> 2066
13:29:00:747 -> 2054
13:29:00:757 -> 1982
13:29:00:767 -> 2023
13:29:00:777 -> 2072
13:29:00:787 -> 2073
13:29:00:797 -> 2019
13:29:00:807 -> 2063
13:29:00:817 -> 2034
13:29:00:827 -> 2039
13:29:00:838 -> 2035
13:29:00:848 -> 2180
13:29:00:857 -> 1976
13:29:00:867 -> 2043
13:29:00:877 -> 1992
13:29:00:911 -> 2213
13:29:00:913 -> 2167
13:29:00:913 -> 2155
13:29:00:917 -> 2153
13:29:00:927 -> 2032
13:29:00:937 -> 1986
13:29:00:948 -> 2275
13:29:00:958 -> 2255
13:29:00:968 -> 2026
13:29:00:981 -> 1982
13:29:00:988 -> 1675
13:29:00:998 -> 1954
13:29:01:015 -> 2031
13:29:01:018 -> 2043
13:29:01:028 -> 2035
13:29:01:038 -> 2208
13:29:01:048 -> 2096
13:29:01:058 -> 1859
13:29:01:068 -> 2280
13:29:01:084 -> 1952
13:29:01:088 -> 2256
13:29:01:098 -> 2101
13:29:01:111 -> 1870
13:29:01:120 -> 2543
13:29:01:130 -> 1860
13:29:01:138 -> 2781
13:29:01:148 -> 2412
13:29:01:158 -> 2563
13:29:01:169 -> 1900
13:29:01:179 -> 1700
13:29:01:189 -> 2026
13:29:01:199 -> 2417
13:29:01:209 -> 1936
13:29:01:219 -> 1518
13:29:01:229 -> 2221
13:29:01:239 -> 2221
13:29:01:249 -> 1158
13:29:01:259 -> 2385
13:29:01:269 -> 2597
13:29:01:280 -> 2530
13:29:01:292 -> 2162
13:29:01:299 -> 1958
13:29:01:309 -> 2548
13:29:01:319 -> 1997
13:29:01:329 -> 1841
13:29:01:339 -> 936
13:29:01:349 -> 2392
13:29:01:359 -> 2105
13:29:01:370 -> 1084
13:29:01:379 -> 2660
13:29:01:390 -> 1676
13:29:01:399 -> 1885
13:29:01:410 -> 2102
13:29:01:438 -> 692
13:29:01:439 -> 1847
13:29:01:440 -> 1967
13:29:01:450 -> 2141
13:29:01:460 -> 2203
13:29:01:470 -> 2979
13:29:01:480 -> 1372
13:29:01:490 -> 3097
13:29:01:500 -> 2613
13:29:01:510 -> 2406
13:29:01:522 -> 2147
13:29:01:540 -> 2299
13:29:01:542 -> 1568
13:29:01:550 -> 2717
13:29:01:560 -> 1720
13:29:01:570 -> 2186
13:29:01:580 -> 1273
13:29:01:590 -> 2266
13:29:01:600 -> 1547
13:29:01:610 -> 2429
13:29:01:620 -> 1768
13:29:01:631 -> 1107
13:29:01:641 -> 2162
13:29:01:651 -> 2142
13:29:01:661 -> 1622
13:29:01:671 -> 1983
13:29:01:681 -> 2332
13:29:01:691 -> 1382
13:29:01:709 -> 933
13:29:01:725 -> 2600
13:29:01:725 -> 2037
13:29:01:742 -> 2147
13:29:01:742 -> 2058
13:29:01:760 -> 1660
13:29:01:774 -> 1781
13:29:01:774 -> 2405
13:29:01:785 -> 2095
13:29:01:814 -> 1236
13:29:01:814 -> 1789
13:29:01:814 -> 1912
13:29:01:821 -> 2414
13:29:01:831 -> 2185
13:29:01:841 -> 2397
13:29:01:856 -> 1914
13:29:01:862 -> 2135
13:29:01:872 -> 2540
13:29:01:882 -> 1511
13:29:01:892 -> 1702
13:29:01:902 -> 1192
13:29:01:912 -> 2717
13:29:01:922 -> 2381
13:29:01:932 -> 1915
13:29:01:964 -> 1426
13:29:01:966 -> 1749
13:29:01:966 -> 1777
13:29:01:972 -> 2521
13:29:01:982 -> 1726
13:29:01:992 -> 2167
13:29:02:002 -> 1832
13:29:02:013 -> 1860
13:29:02:022 -> 2281
13:29:02:032 -> 1819
13:29:02:042 -> 2344
13:29:02:053 -> 1520
13:29:02:063 -> 1247
13:29:02:073 -> 828
13:29:02:083 -> 2086
13:29:02:093 -> 3092
13:29:02:114 -> 1628
13:29:02:115 -> 2254
13:29:02:123 -> 1571
13:29:02:133 -> 1974
13:29:02:143 -> 1490
13:29:02:155 -> 2301
13:29:02:163 -> 1424
13:29:02:173 -> 2366
13:29:02:183 -> 1359
13:29:02:194 -> 1774
13:29:02:204 -> 2279
13:29:02:216 -> 2136
13:29:02:224 -> 2595
13:29:02:235 -> 2950
13:29:02:243 -> 2250
13:29:02:253 -> 2410
13:29:02:263 -> 2545
13:29:02:274 -> 2386
13:29:02:283 -> 1912
13:29:02:293 -> 2080
13:29:02:303 -> 1700
13:29:02:313 -> 2635
13:29:02:324 -> 1503
13:29:02:334 -> 2590
13:29:02:344 -> 2446
13:29:02:354 -> 2549
13:29:02:364 -> 1652
13:29:02:374 -> 2801
13:29:02:384 -> 2056
13:29:02:394 -> 1906
13:29:02:404 -> 1974
13:29:02:414 -> 2293
13:29:02:426 -> 2252
13:29:02:434 -> 1928
13:29:02:447 -> 1699
13:29:02:454 -> 1955
13:29:02:495 -> 1300
13:29:02:498 -> 1501
13:29:02:498 -> 2007
13:29:02:498 -> 2255
13:29:02:505 -> 2177
13:29:02:514 -> 1945
13:29:02:525 -> 2077
13:29:02:540 -> 2726
13:29:02:556 -> 1816
13:29:02:556 -> 2247
13:29:02:581 -> 2279
13:29:02:581 -> 2424
13:29:02:596 -> 936
13:29:02:596 -> 2004
13:29:02:632 -> 1302
13:29:02:643 -> 2398
13:29:02:643 -> 1487
13:29:02:643 -> 2211
13:29:02:645 -> 2182
13:29:02:656 -> 2184
13:29:02:666 -> 2057
13:29:02:675 -> 2226
13:29:02:686 -> 2057
13:29:02:695 -> 1973
13:29:02:705 -> 1951
13:29:02:716 -> 2386
13:29:02:725 -> 2383
13:29:02:736 -> 1936
13:29:02:746 -> 2220
13:29:02:755 -> 1895
13:29:02:766 -> 2130
13:29:02:775 -> 2068
13:29:02:785 -> 1930
13:29:02:796 -> 2211
13:29:02:806 -> 2141
13:29:02:816 -> 1801
13:29:02:826 -> 1991
13:29:02:836 -> 2191
13:29:02:846 -> 2067
13:29:02:857 -> 2079
13:29:02:866 -> 2040
13:29:02:879 -> 2060
13:29:02:886 -> 2053
13:29:02:896 -> 2103
13:29:02:912 -> 2090
13:29:02:917 -> 2094
13:29:02:927 -> 2008
13:29:02:936 -> 2081
13:29:02:947 -> 2093
13:29:02:957 -> 2045
13:29:02:968 -> 2119
13:29:02:977 -> 1995
13:29:02:987 -> 2062
13:29:03:032 -> 1963
13:29:03:043 -> 2050
13:29:03:043 -> 1967
13:29:03:043 -> 2111
13:29:03:043 -> 1974
13:29:03:047 -> 2114
13:29:03:057 -> 1968
13:29:03:067 -> 2143
13:29:03:077 -> 1977
13:29:03:087 -> 2074
13:29:03:099 -> 2061
13:29:03:108 -> 2047
13:29:03:120 -> 2150
13:29:03:130 -> 1983
13:29:03:138 -> 2189
13:29:03:150 -> 2055
13:29:03:157 -> 2082
13:29:03:169 -> 2087
13:29:03:177 -> 2073
13:29:03:187 -> 2056
13:29:03:198 -> 1992
13:29:03:210 -> 2041
13:29:03:218 -> 2108
13:29:03:228 -> 2044
13:29:03:238 -> 2149
13:29:03:248 -> 2065
13:29:03:258 -> 2125
13:29:03:268 -> 2038
13:29:03:278 -> 2072
13:29:03:288 -> 2008
13:29:03:298 -> 2077
13:29:03:309 -> 2077
13:29:03:318 -> 2093
13:29:03:328 -> 2108
13:29:03:348 -> 2060
13:29:03:349 -> 2127
13:29:03:359 -> 2036
13:29:03:368 -> 2051
13:29:03:379 -> 2113
13:29:03:388 -> 2160
13:29:03:398 -> 2082
13:29:03:408 -> 2132
13:29:03:431 -> 2095
13:29:03:451 -> 2090
13:29:03:451 -> 2106
13:29:03:451 -> 2100
13:29:03:468 -> 2088
13:29:03:487 -> 2120
13:29:03:487 -> 2041
13:29:03:495 -> 2099
13:29:03:499 -> 2060
13:29:03:515 -> 2089
13:29:03:519 -> 2043
13:29:03:529 -> 2115
13:29:03:561 -> 2055
13:29:03:564 -> 2119
13:29:03:564 -> 2064
13:29:03:572 -> 2122
13:29:03:579 -> 2069
13:29:03:589 -> 2155
13:29:03:599 -> 2027
13:29:03:609 -> 2103
13:29:03:620 -> 2024
13:29:03:632 -> 2143
13:29:03:639 -> 2004
13:29:03:650 -> 2098
13:29:03:660 -> 1999
13:29:03:670 -> 2157
13:29:03:687 -> 1984
13:29:03:690 -> 2131
13:29:03:700 -> 1993
13:29:03:710 -> 2114
13:29:03:720 -> 1984
13:29:03:730 -> 2138
13:29:03:740 -> 1981
13:29:03:750 -> 2132
13:29:03:763 -> 1982
13:29:03:770 -> 2148
13:29:03:781 -> 2001
13:29:03:791 -> 2129
13:29:03:800 -> 1946
13:29:03:811 -> 2160
13:29:03:820 -> 2004
13:29:03:830 -> 2155
13:29:03:841 -> 1980
13:29:03:854 -> 2208
13:29:03:860 -> 1952
13:29:03:871 -> 2228
13:29:03:881 -> 1943
13:29:03:891 -> 2185
13:29:03:901 -> 1954
13:29:03:911 -> 2237
13:29:03:922 -> 1906
13:29:03:931 -> 2243
13:29:03:941 -> 1943
13:29:03:951 -> 2233
13:29:03:961 -> 1935
13:29:03:971 -> 2258
13:29:03:982 -> 1960
13:29:03:992 -> 2258
13:29:04:002 -> 1992
13:29:04:011 -> 2241
13:29:04:022 -> 1914
13:29:04:031 -> 2279
13:29:04:041 -> 1941
13:29:04:051 -> 2212
13:29:04:095 -> 1935
13:29:04:097 -> 2207
13:29:04:097 -> 1962
13:29:04:097 -> 2227
13:29:04:102 -> 1926
13:29:04:112 -> 2175
13:29:04:122 -> 1917
13:29:04:135 -> 2192
13:29:04:142 -> 1934
13:29:04:152 -> 2210
13:29:04:162 -> 1955
13:29:04:172 -> 2154
13:29:04:182 -> 1953
13:29:04:198 -> 2194
13:29:04:202 -> 1976
13:29:04:213 -> 2194
13:29:04:222 -> 1929
13:29:04:232 -> 2200
13:29:04:242 -> 2002
13:29:04:252 -> 2194
13:29:04:262 -> 1976
13:29:04:272 -> 2183
13:29:04:282 -> 1992
13:29:04:295 -> 2169
13:29:04:302 -> 1959
13:29:04:312 -> 2146
13:29:04:323 -> 2010
13:29:04:332 -> 2133
13:29:04:343 -> 1988
13:29:04:353 -> 2155
13:29:04:363 -> 1992
13:29:04:373 -> 2163
13:29:04:383 -> 2028
13:29:04:393 -> 2162
13:29:04:403 -> 2018
13:29:04:413 -> 2129
13:29:04:423 -> 2038
13:29:04:433 -> 2127
13:29:04:443 -> 2027
13:29:04:453 -> 2150
13:29:04:463 -> 2020
13:29:04:473 -> 2140
13:29:04:483 -> 2030
13:29:04:495 -> 2101
13:29:04:503 -> 2027
13:29:04:513 -> 2132
13:29:04:523 -> 2028
13:29:04:533 -> 2162
13:29:04:543 -> 2046
13:29:04:553 -> 2129
13:29:04:564 -> 2038
13:29:04:574 -> 2138
13:29:04:584 -> 2001
13:29:04:621 -> 2096
13:29:04:623 -> 2028
13:29:04:623 -> 2136
13:29:04:624 -> 2034
13:29:04:634 -> 2102
13:29:04:644 -> 2046
13:29:04:654 -> 2139
13:29:04:664 -> 2062
13:29:04:674 -> 2144
13:29:04:684 -> 2060
13:29:04:694 -> 2124
13:29:04:704 -> 2064
13:29:04:723 -> 2122
13:29:04:726 -> 2055
13:29:04:734 -> 2092
13:29:04:744 -> 2073
13:29:04:754 -> 2127
13:29:04:764 -> 2036
13:29:04:774 -> 2094
13:29:04:785 -> 2099
13:29:04:795 -> 2102
13:29:04:805 -> 2087
13:29:04:815 -> 2103
13:29:04:825 -> 2085
13:29:04:835 -> 2114
13:29:04:845 -> 2060
13:29:04:855 -> 2079
13:29:04:865 -> 2100
13:29:04:875 -> 2058
13:29:04:885 -> 2074
13:29:04:895 -> 2095
13:29:04:905 -> 2103
13:29:04:915 -> 2085
13:29:04:925 -> 2094
13:29:04:940 -> 2039
13:29:04:945 -> 2054
13:29:04:955 -> 2091
13:29:04:965 -> 2172
13:29:04:975 -> 2079
13:29:04:985 -> 2141
13:29:04:995 -> 2109
13:29:05:005 -> 2108
13:29:05:017 -> 2066
13:29:05:026 -> 2071
13:29:05:061 -> 2123
13:29:05:074 -> 2092
13:29:05:074 -> 2013
13:29:05:074 -> 2188
13:29:05:107 -> 2022
13:29:05:107 -> 2131
13:29:05:107 -> 2045
13:29:05:107 -> 2059
13:29:05:145 -> 2029
13:29:05:161 -> 2141
13:29:05:161 -> 2070
13:29:05:161 -> 2202
13:29:05:161 -> 2273
13:29:05:171 -> 2142
13:29:05:181 -> 1879
13:29:05:186 -> 1935
13:29:05:198 -> 2073
13:29:05:208 -> 2165
13:29:05:217 -> 2073
13:29:05:227 -> 2079
13:29:05:237 -> 2137
13:29:05:250 -> 2097
13:29:05:257 -> 2217
13:29:05:267 -> 2294
13:29:05:277 -> 2009
13:29:05:287 -> 2306
13:29:05:297 -> 2025
13:29:05:311 -> 2016
13:29:05:317 -> 1919
13:29:05:329 -> 2451
13:29:05:338 -> 2219
13:29:05:347 -> 2078
13:29:05:357 -> 2425
13:29:05:383 -> 2419
13:29:05:383 -> 1671
13:29:05:391 -> 2562
13:29:05:405 -> 1823
13:29:05:407 -> 2102
13:29:05:417 -> 2395
13:29:05:427 -> 2112
13:29:05:437 -> 2032
13:29:05:447 -> 2406
13:29:05:457 -> 2397
13:29:05:470 -> 2204
13:29:05:478 -> 2314
13:29:05:488 -> 2372
13:29:05:498 -> 2239
13:29:05:508 -> 2135
13:29:05:518 -> 1847
13:29:05:528 -> 2397
13:29:05:538 -> 2894
13:29:05:548 -> 1988
13:29:05:558 -> 1684
13:29:05:568 -> 2493
13:29:05:578 -> 1866
13:29:05:588 -> 1514
13:29:05:598 -> 2207
13:29:05:608 -> 1970
13:29:05:618 -> 2896
13:29:05:628 -> 2520
13:29:05:638 -> 2239
13:29:05:668 -> 2176
13:29:05:670 -> 2160
13:29:05:670 -> 1537
13:29:05:680 -> 1817
13:29:05:689 -> 2464
13:29:05:699 -> 1584
13:29:05:709 -> 2272
13:29:05:719 -> 2328
13:29:05:729 -> 1861
13:29:05:739 -> 2144
13:29:05:749 -> 2364
13:29:05:773 -> 2037
13:29:05:776 -> 2243
13:29:05:779 -> 2161
13:29:05:790 -> 2424
13:29:05:799 -> 1454
13:29:05:809 -> 2419
13:29:05:819 -> 1907
13:29:05:831 -> 2240
13:29:05:839 -> 2425
13:29:05:849 -> 2318
13:29:05:860 -> 2003
13:29:05:869 -> 2368
13:29:05:880 -> 1725
13:29:05:889 -> 1130
13:29:05:899 -> 2276
13:29:05:910 -> 2387
13:29:05:920 -> 1672
13:29:05:930 -> 2476
13:29:05:940 -> 1888
13:29:05:950 -> 2457
13:29:05:960 -> 2022
13:29:05:970 -> 1844
13:29:05:980 -> 1921
13:29:05:997 -> 2318
13:29:06:000 -> 1078
13:29:06:010 -> 2138
13:29:06:023 -> 1996
13:29:06:034 -> 2098
13:29:06:042 -> 1923
13:29:06:050 -> 2481
13:29:06:060 -> 2092
13:29:06:070 -> 1944
13:29:06:080 -> 2311
13:29:06:090 -> 2650
13:29:06:101 -> 1703
13:29:06:110 -> 2644
13:29:06:120 -> 1914
13:29:06:131 -> 2466
13:29:06:141 -> 1804
13:29:06:151 -> 1712
13:29:06:161 -> 1888
13:29:06:196 -> 2425
13:29:06:197 -> 2359
13:29:06:197 -> 2575
13:29:06:203 -> 1994
13:29:06:211 -> 2271
13:29:06:238 -> 1631
13:29:06:241 -> 2372
13:29:06:242 -> 2185
13:29:06:251 -> 2799
13:29:06:261 -> 1167
13:29:06:271 -> 2721
13:29:06:281 -> 1828
13:29:06:291 -> 2471
13:29:06:302 -> 2110
13:29:06:312 -> 1344
13:29:06:322 -> 2135
13:29:06:331 -> 2179
13:29:06:342 -> 2011
13:29:06:351 -> 2453
13:29:06:362 -> 1448
13:29:06:372 -> 2152
13:29:06:382 -> 1561
13:29:06:392 -> 2304
13:29:06:402 -> 2170
13:29:06:412 -> 2196
13:29:06:422 -> 1922
13:29:06:432 -> 2013
13:29:06:442 -> 2144
13:29:06:452 -> 2259
13:29:06:462 -> 1659
13:29:06:472 -> 2037
13:29:06:482 -> 2100
13:29:06:492 -> 2259
13:29:06:502 -> 2139
13:29:06:512 -> 1879
13:29:06:532 -> 1816
13:29:06:533 -> 1102
13:29:06:544 -> 2348
13:29:06:552 -> 2341
13:29:06:562 -> 2289
13:29:06:572 -> 2055
13:29:06:582 -> 2335
13:29:06:593 -> 2255
13:29:06:603 -> 2013
13:29:06:613 -> 1405
13:29:06:623 -> 2427
13:29:06:633 -> 1762
13:29:06:643 -> 2145
13:29:06:653 -> 1640
13:29:06:664 -> 1821
13:29:06:673 -> 2093
13:29:06:683 -> 2424
13:29:06:693 -> 1644
13:29:06:728 -> 1091
13:29:06:729 -> 2072
13:29:06:729 -> 1719
13:29:06:734 -> 2738
13:29:06:743 -> 1803
13:29:06:753 -> 2475
13:29:06:763 -> 2482
13:29:06:773 -> 1538
13:29:06:783 -> 2370
13:29:06:793 -> 3205
13:29:06:804 -> 646
13:29:06:814 -> 1635
13:29:06:824 -> 2354
13:29:06:844 -> 1453
13:29:06:867 -> 1999
13:29:06:867 -> 2844
13:29:06:834 -> 2573
13:29:06:904 -> 536
13:29:06:904 -> 2547
13:29:06:904 -> 2048
13:29:06:904 -> 2290
13:29:06:914 -> 2211
13:29:06:943 -> 2147
13:29:06:943 -> 2075
13:29:06:950 -> 2143
13:29:06:956 -> 2006
13:29:06:964 -> 2034
13:29:06:975 -> 2097
13:29:06:984 -> 2109
13:29:06:994 -> 2231
13:29:07:004 -> 1838
13:29:07:014 -> 2155
13:29:07:025 -> 2041
13:29:07:034 -> 2027
13:29:07:045 -> 2127
13:29:07:055 -> 1887
13:29:07:065 -> 2178
13:29:07:075 -> 2054
13:29:07:087 -> 2146
13:29:07:096 -> 1943
13:29:07:105 -> 2138
13:29:07:115 -> 1910
13:29:07:125 -> 2125
13:29:07:136 -> 2019
13:29:07:145 -> 2216
13:29:07:155 -> 2066
13:29:07:166 -> 2112
13:29:07:175 -> 2035
13:29:07:185 -> 2077
13:29:07:195 -> 2113
13:29:07:205 -> 2128
13:29:07:215 -> 2118
13:29:07:225 -> 2135
13:29:07:255 -> 2105
13:29:07:257 -> 2065
13:29:07:257 -> 2153
13:29:07:266 -> 1984
13:29:07:276 -> 2156
13:29:07:286 -> 2027
13:29:07:296 -> 2159
13:29:07:306 -> 2088
13:29:07:316 -> 2125
13:29:07:326 -> 2094
13:29:07:336 -> 2095
13:29:07:346 -> 2056
13:29:07:356 -> 2147
13:29:07:366 -> 2085
13:29:07:376 -> 2117
13:29:07:386 -> 2064
13:29:07:396 -> 2096
13:29:07:406 -> 2095
13:29:07:417 -> 2105
13:29:07:426 -> 2051
13:29:07:436 -> 2124
13:29:07:451 -> 2093
13:29:07:457 -> 2137
13:29:07:466 -> 2076
13:29:07:476 -> 2085
13:29:07:487 -> 2059
13:29:07:497 -> 2074
13:29:07:507 -> 2084
13:29:07:517 -> 2103
13:29:07:528 -> 1925
13:29:07:537 -> 2073
13:29:07:547 -> 2082
13:29:07:557 -> 2050
13:29:07:567 -> 2032
13:29:07:577 -> 2082
13:29:07:587 -> 2028
13:29:07:597 -> 2003
13:29:07:607 -> 2054
13:29:07:617 -> 2024
13:29:07:627 -> 2086
13:29:07:637 -> 2016
13:29:07:649 -> 2098
13:29:07:657 -> 2004
13:29:07:667 -> 2058
13:29:07:677 -> 1983
13:29:07:687 -> 2121
13:29:07:697 -> 1969
13:29:07:708 -> 2172
13:29:07:718 -> 2038
13:29:07:728 -> 2081
13:29:07:738 -> 2025
13:29:07:748 -> 2096
13:29:07:780 -> 1994
13:29:07:781 -> 2144
13:29:07:781 -> 1972
13:29:07:791 -> 2147
13:29:07:798 -> 2013
13:29:07:810 -> 2126
13:29:07:818 -> 2025
13:29:07:828 -> 2128
13:29:07:838 -> 1991
13:29:07:848 -> 2128
13:29:07:859 -> 1981
13:29:07:868 -> 2133
13:29:07:878 -> 2020
13:29:07:889 -> 2125
13:29:07:902 -> 1984
13:29:07:910 -> 2190
13:29:07:919 -> 1968
13:29:07:929 -> 2198
13:29:07:939 -> 1998
13:29:07:949 -> 2226
13:29:07:959 -> 1966
13:29:07:970 -> 2242
13:29:07:979 -> 2007
13:29:07:989 -> 2239
13:29:07:999 -> 2010
13:29:08:009 -> 2239
13:29:08:019 -> 1937
13:29:08:029 -> 2230
13:29:08:039 -> 1957
13:29:08:049 -> 2254
13:29:08:059 -> 1948
13:29:08:069 -> 2252
13:29:08:079 -> 1989
13:29:08:089 -> 2207
13:29:08:099 -> 1919
13:29:08:109 -> 2253
13:29:08:119 -> 1932
13:29:08:130 -> 2251
13:29:08:140 -> 1961
13:29:08:149 -> 2224
13:29:08:171 -> 1982
13:29:08:172 -> 2241
13:29:08:180 -> 1950
13:29:08:190 -> 2216
13:29:08:202 -> 1970
13:29:08:210 -> 2248
13:29:08:220 -> 1957
13:29:08:230 -> 2176
13:29:08:241 -> 1904
13:29:08:250 -> 2223
13:29:08:260 -> 1962
13:29:08:270 -> 2214
13:29:08:304 -> 1940
13:29:08:306 -> 2195
13:29:08:306 -> 1977
13:29:08:310 -> 2161
13:29:08:322 -> 1997
13:29:08:332 -> 2207
13:29:08:341 -> 1935
13:29:08:352 -> 2176
13:29:08:361 -> 1979
13:29:08:370 -> 2188
13:29:08:399 -> 1995
13:29:08:417 -> 2198
13:29:08:417 -> 2010
13:29:08:417 -> 2186
13:29:08:458 -> 1988
13:29:08:458 -> 2165
13:29:08:458 -> 2051
13:29:08:458 -> 2189
13:29:08:466 -> 2009
13:29:08:502 -> 2138
13:29:08:502 -> 2014
13:29:08:502 -> 2125
13:29:08:502 -> 2012
13:29:08:511 -> 2117
13:29:08:535 -> 2011
13:29:08:536 -> 2088
13:29:08:541 -> 2026
13:29:08:551 -> 2157
13:29:08:562 -> 2015
13:29:08:571 -> 2136
13:29:08:581 -> 2027
13:29:08:592 -> 2137
13:29:08:601 -> 2031
13:29:08:612 -> 2153
13:29:08:622 -> 1991
13:29:08:632 -> 2139
13:29:08:642 -> 2021
13:29:08:652 -> 2141
13:29:08:662 -> 2063
13:29:08:672 -> 2155
13:29:08:682 -> 2078
13:29:08:693 -> 2149
13:29:08:702 -> 2064
13:29:08:719 -> 2155
13:29:08:724 -> 2093
13:29:08:732 -> 2120
13:29:08:743 -> 2087
13:29:08:752 -> 2122
13:29:08:762 -> 2105
13:29:08:772 -> 2138
13:29:08:782 -> 2079
13:29:08:792 -> 2100
13:29:08:802 -> 2090
13:29:08:827 -> 2125
13:29:08:831 -> 2103
13:29:08:833 -> 2081
13:29:08:845 -> 2104
13:29:08:853 -> 2098
13:29:08:863 -> 2043
13:29:08:873 -> 2104
13:29:08:883 -> 2083
13:29:08:893 -> 2074
13:29:08:903 -> 2128
