13:40:48:593 -> 1945
13:40:48:603 -> 2209
13:40:48:614 -> 1946
13:40:48:625 -> 2196
13:40:48:634 -> 1953
13:40:48:644 -> 2197
13:40:48:657 -> 1949
13:40:48:664 -> 2179
13:40:48:674 -> 1960
13:40:48:684 -> 2179
13:40:48:694 -> 1959
13:40:48:704 -> 2184
13:40:48:746 -> 1957
13:40:48:749 -> 2175
13:40:48:749 -> 1966
13:40:48:749 -> 2166
13:40:48:754 -> 1966
13:40:48:764 -> 2168
13:40:48:774 -> 1992
13:40:48:784 -> 2171
13:40:48:794 -> 1980
13:40:48:804 -> 2165
13:40:48:814 -> 1968
13:40:48:824 -> 2156
13:40:48:834 -> 1992
13:40:48:844 -> 2162
13:40:48:855 -> 1991
13:40:48:865 -> 2152
13:40:48:875 -> 1999
13:40:48:885 -> 2163
13:40:48:895 -> 2009
13:40:48:905 -> 2145
13:40:48:915 -> 2007
13:40:48:926 -> 2135
13:40:48:935 -> 2018
13:40:48:945 -> 2137
13:40:48:955 -> 2023
13:40:48:965 -> 2132
13:40:48:975 -> 2026
13:40:48:985 -> 2141
13:40:48:995 -> 2024
13:40:49:005 -> 2132
13:40:49:016 -> 2041
13:40:49:025 -> 2136
13:40:49:035 -> 2040
13:40:49:045 -> 2129
13:40:49:055 -> 2041
13:40:49:074 -> 2118
13:40:49:076 -> 2044
13:40:49:088 -> 2124
13:40:49:096 -> 2039
13:40:49:106 -> 2120
13:40:49:116 -> 2055
13:40:49:126 -> 2110
13:40:49:136 -> 2062
13:40:49:148 -> 2114
13:40:49:157 -> 2043
13:40:49:166 -> 2106
13:40:49:176 -> 2047
13:40:49:186 -> 2118
13:40:49:196 -> 2068
13:40:49:206 -> 2105
13:40:49:216 -> 2063
13:40:49:226 -> 2103
13:40:49:236 -> 2070
13:40:49:272 -> 2093
13:40:49:274 -> 2071
13:40:49:274 -> 2095
13:40:49:276 -> 2085
13:40:49:287 -> 2083
13:40:49:297 -> 2071
13:40:49:307 -> 2085
13:40:49:317 -> 2080
13:40:49:327 -> 2079
13:40:49:337 -> 2075
13:40:49:347 -> 2076
13:40:49:357 -> 2078
13:40:49:367 -> 2081
13:40:49:378 -> 2087
13:40:49:387 -> 2074
13:40:49:397 -> 2071
13:40:49:427 -> 2077
13:40:49:431 -> 2088
13:40:49:431 -> 2084
13:40:49:437 -> 2086
13:40:49:448 -> 2062
13:40:49:457 -> 2079
13:40:49:467 -> 2056
13:40:49:477 -> 2094
13:40:49:487 -> 2071
13:40:49:497 -> 2091
13:40:49:507 -> 2055
13:40:49:517 -> 2095
13:40:49:527 -> 2053
13:40:49:537 -> 2079
13:40:49:548 -> 2060
13:40:49:558 -> 2091
13:40:49:568 -> 2050
13:40:49:578 -> 2091
13:40:49:588 -> 2042
13:40:49:598 -> 2093
13:40:49:608 -> 2055
13:40:49:619 -> 2112
13:40:49:628 -> 2036
13:40:49:638 -> 2126
13:40:49:648 -> 2013
13:40:49:658 -> 2148
13:40:49:669 -> 2007
13:40:49:678 -> 2160
13:40:49:688 -> 1998
13:40:49:698 -> 2165
13:40:49:709 -> 1987
13:40:49:726 -> 2143
13:40:49:728 -> 2004
13:40:49:738 -> 2146
13:40:49:750 -> 2018
13:40:49:761 -> 2136
13:40:49:819 -> 2046
13:40:49:916 -> 2113
13:40:49:916 -> 2051
13:40:49:916 -> 2096
13:40:49:916 -> 2077
13:40:49:916 -> 2100
13:40:49:916 -> 2072
13:40:49:916 -> 2097
13:40:49:916 -> 2075
13:40:49:916 -> 2089
13:40:49:944 -> 2080
13:40:49:944 -> 2081
13:40:49:944 -> 2071
13:40:49:944 -> 2100
13:40:49:944 -> 2074
13:40:49:944 -> 2086
13:40:49:944 -> 2062
13:40:49:944 -> 2090
13:40:49:960 -> 2078
13:40:49:960 -> 2085
13:40:49:969 -> 2082
13:40:49:981 -> 2071
13:40:49:995 -> 2090
13:40:50:003 -> 2087
13:40:50:010 -> 2076
13:40:50:023 -> 2097
13:40:50:032 -> 2054
13:40:50:040 -> 2120
13:40:50:050 -> 2051
13:40:50:060 -> 2123
13:40:50:074 -> 2030
13:40:50:083 -> 2139
13:40:50:091 -> 2022
13:40:50:100 -> 2118
13:40:50:116 -> 2045
13:40:50:120 -> 2122
13:40:50:131 -> 2028
13:40:50:140 -> 2104
13:40:50:151 -> 2038
13:40:50:161 -> 2105
13:40:50:170 -> 2040
13:40:50:181 -> 2092
13:40:50:191 -> 2046
13:40:50:200 -> 2105
13:40:50:211 -> 2051
13:40:50:221 -> 2124
13:40:50:235 -> 1998
13:40:50:248 -> 2176
13:40:50:257 -> 2037
13:40:50:261 -> 2131
13:40:50:271 -> 2014
13:40:50:281 -> 2119
13:40:50:293 -> 2042
13:40:50:301 -> 2158
13:40:50:311 -> 2031
13:40:50:341 -> 2172
13:40:50:344 -> 2013
13:40:50:344 -> 2167
13:40:50:351 -> 1996
13:40:50:361 -> 2184
13:40:50:371 -> 1971
13:40:50:383 -> 2168
13:40:50:396 -> 1964
13:40:50:401 -> 2142
13:40:50:411 -> 1928
13:40:50:422 -> 2168
13:40:50:432 -> 1984
13:40:50:442 -> 2190
13:40:50:452 -> 1980
13:40:50:462 -> 2174
13:40:50:475 -> 1984
13:40:50:482 -> 2154
13:40:50:492 -> 1986
13:40:50:502 -> 2112
13:40:50:512 -> 1980
13:40:50:522 -> 2198
13:40:50:532 -> 1994
13:40:50:542 -> 2172
13:40:50:552 -> 1971
13:40:50:562 -> 2198
13:40:50:572 -> 1979
13:40:50:587 -> 2193
13:40:50:593 -> 1971
13:40:50:602 -> 2191
13:40:50:612 -> 1978
13:40:50:623 -> 2227
13:40:50:632 -> 1954
13:40:50:642 -> 2228
13:40:50:652 -> 1948
13:40:50:662 -> 2234
13:40:50:679 -> 1933
13:40:50:683 -> 2220
13:40:50:693 -> 1933
13:40:50:703 -> 2254
13:40:50:713 -> 1952
13:40:50:723 -> 2228
13:40:50:733 -> 1946
13:40:50:743 -> 2219
13:40:50:754 -> 1913
13:40:50:763 -> 2237
13:40:50:773 -> 1927
13:40:50:783 -> 2227
13:40:50:793 -> 1928
13:40:50:803 -> 2237
13:40:50:813 -> 2020
13:40:50:823 -> 2204
13:40:50:833 -> 1962
13:40:50:866 -> 2241
13:40:50:867 -> 1932
13:40:50:867 -> 2237
13:40:50:874 -> 1941
13:40:50:884 -> 2225
13:40:50:893 -> 1958
13:40:50:904 -> 2238
13:40:50:915 -> 1957
13:40:50:924 -> 2207
13:40:50:934 -> 1990
13:40:50:944 -> 2210
13:40:50:954 -> 1940
13:40:50:964 -> 2204
13:40:50:974 -> 1962
13:40:50:984 -> 2179
13:40:50:994 -> 1953
13:40:51:004 -> 2183
13:40:51:014 -> 1930
13:40:51:028 -> 2170
13:40:51:035 -> 1782
13:40:51:044 -> 2221
13:40:51:056 -> 1981
13:40:51:065 -> 2189
13:40:51:074 -> 1959
13:40:51:085 -> 2169
13:40:51:094 -> 1957
13:40:51:104 -> 2168
13:40:51:115 -> 1960
13:40:51:124 -> 2179
13:40:51:134 -> 2031
13:40:51:145 -> 2200
13:40:51:155 -> 1960
13:40:51:165 -> 2169
13:40:51:175 -> 1992
13:40:51:185 -> 2168
13:40:51:195 -> 1982
13:40:51:205 -> 2161
13:40:51:215 -> 2016
13:40:51:225 -> 2175
13:40:51:239 -> 1994
13:40:51:245 -> 2149
13:40:51:256 -> 1990
13:40:51:265 -> 2158
13:40:51:275 -> 2001
13:40:51:285 -> 2148
13:40:51:295 -> 2009
13:40:51:305 -> 2142
13:40:51:315 -> 2017
13:40:51:326 -> 2134
13:40:51:335 -> 1966
13:40:51:345 -> 2185
13:40:51:355 -> 2013
13:40:51:389 -> 2134
13:40:51:390 -> 2035
13:40:51:390 -> 2101
13:40:51:396 -> 2032
13:40:51:406 -> 2191
13:40:51:416 -> 2026
13:40:51:426 -> 2139
13:40:51:436 -> 2055
13:40:51:446 -> 2121
13:40:51:456 -> 2094
13:40:51:466 -> 2125
13:40:51:476 -> 2068
13:40:51:489 -> 2119
13:40:51:526 -> 2028
13:40:51:526 -> 2070
13:40:51:526 -> 2027
13:40:51:584 -> 2110
13:40:51:584 -> 2133
13:40:51:584 -> 2089
13:40:51:584 -> 2078
13:40:51:594 -> 2094
13:40:51:594 -> 2051
13:40:51:594 -> 2110
13:40:51:608 -> 2064
13:40:51:608 -> 2158
13:40:51:625 -> 2083
13:40:51:629 -> 2148
13:40:51:637 -> 2046
13:40:51:647 -> 2084
13:40:51:657 -> 2060
13:40:51:667 -> 2090
13:40:51:677 -> 2125
13:40:51:687 -> 2102
13:40:51:697 -> 2120
13:40:51:707 -> 2098
13:40:51:717 -> 1964
13:40:51:728 -> 2075
13:40:51:738 -> 2066
13:40:51:747 -> 2056
13:40:51:758 -> 2071
13:40:51:781 -> 2090
13:40:51:783 -> 2044
13:40:51:788 -> 2070
13:40:51:797 -> 2097
13:40:51:808 -> 2014
13:40:51:818 -> 2091
13:40:51:828 -> 2071
13:40:51:838 -> 2109
13:40:51:849 -> 2050
13:40:51:858 -> 2085
13:40:51:868 -> 2047
13:40:51:878 -> 2045
13:40:51:888 -> 2015
13:40:51:929 -> 2160
13:40:51:933 -> 2078
13:40:51:933 -> 2115
13:40:51:933 -> 2044
13:40:51:938 -> 2082
13:40:51:948 -> 2050
13:40:51:958 -> 2107
13:40:51:968 -> 1999
13:40:51:978 -> 2179
13:40:51:988 -> 2039
13:40:51:998 -> 2170
13:40:52:008 -> 1979
13:40:52:018 -> 2185
13:40:52:028 -> 2009
13:40:52:039 -> 2168
13:40:52:049 -> 2019
13:40:52:059 -> 2145
13:40:52:077 -> 2046
13:40:52:079 -> 2077
13:40:52:089 -> 2044
13:40:52:099 -> 2127
13:40:52:111 -> 2018
13:40:52:120 -> 2138
13:40:52:129 -> 2011
13:40:52:139 -> 2112
13:40:52:149 -> 2061
13:40:52:159 -> 2111
13:40:52:170 -> 2072
13:40:52:181 -> 2072
13:40:52:191 -> 2102
13:40:52:199 -> 2113
13:40:52:210 -> 2080
13:40:52:219 -> 2065
13:40:52:230 -> 2076
13:40:52:239 -> 2102
13:40:52:249 -> 2085
13:40:52:260 -> 2104
13:40:52:270 -> 2087
13:40:52:280 -> 2120
13:40:52:290 -> 2017
13:40:52:305 -> 2086
13:40:52:310 -> 2118
13:40:52:320 -> 2103
13:40:52:331 -> 2100
13:40:52:340 -> 2080
13:40:52:350 -> 2085
13:40:52:360 -> 2081
13:40:52:370 -> 2070
13:40:52:380 -> 2073
13:40:52:390 -> 2041
13:40:52:400 -> 2102
13:40:52:412 -> 1994
13:40:52:420 -> 2128
13:40:52:450 -> 2018
13:40:52:451 -> 2146
13:40:52:451 -> 2026
13:40:52:460 -> 2119
13:40:52:470 -> 2033
13:40:52:481 -> 2114
13:40:52:491 -> 2011
13:40:52:501 -> 2109
13:40:52:511 -> 2061
13:40:52:521 -> 2098
13:40:52:532 -> 2039
13:40:52:541 -> 2105
13:40:52:551 -> 2047
13:40:52:561 -> 2094
13:40:52:571 -> 2041
13:40:52:588 -> 2102
13:40:52:591 -> 2018
13:40:52:601 -> 2114
13:40:52:611 -> 2036
13:40:52:621 -> 2118
13:40:52:632 -> 2025
13:40:52:641 -> 2153
13:40:52:651 -> 2012
13:40:52:661 -> 2140
13:40:52:671 -> 1983
13:40:52:681 -> 2164
13:40:52:691 -> 2018
13:40:52:702 -> 2153
13:40:52:712 -> 1993
13:40:52:722 -> 2148
13:40:52:732 -> 1997
13:40:52:742 -> 2168
13:40:52:752 -> 1984
13:40:52:773 -> 2177
13:40:52:774 -> 1986
13:40:52:782 -> 2183
13:40:52:792 -> 1989
13:40:52:802 -> 2178
13:40:52:812 -> 1973
13:40:52:822 -> 2189
13:40:52:832 -> 1967
13:40:52:843 -> 2184
13:40:52:852 -> 1962
13:40:52:862 -> 2182
13:40:52:872 -> 1988
13:40:52:882 -> 2165
13:40:52:892 -> 1982
13:40:52:902 -> 2185
13:40:52:913 -> 1985
13:40:52:922 -> 2176
13:40:52:933 -> 1988
13:40:52:943 -> 2212
13:40:52:978 -> 1961
13:40:52:979 -> 2216
13:40:52:979 -> 1953
13:40:52:983 -> 2226
13:40:52:993 -> 1938
13:40:53:003 -> 2222
13:40:53:015 -> 1937
13:40:53:028 -> 2233
13:40:53:033 -> 1937
13:40:53:043 -> 2239
13:40:53:057 -> 1927
13:40:53:063 -> 2231
13:40:53:073 -> 1940
13:40:53:083 -> 2228
13:40:53:093 -> 1925
13:40:53:103 -> 2246
13:40:53:113 -> 1926
13:40:53:123 -> 2225
13:40:53:133 -> 1925
13:40:53:143 -> 2241
13:40:53:154 -> 1922
13:40:53:164 -> 2225
13:40:53:174 -> 1938
13:40:53:184 -> 2228
13:40:53:194 -> 1951
13:40:53:204 -> 2196
13:40:53:214 -> 1943
13:40:53:224 -> 2229
13:40:53:234 -> 1945
13:40:53:246 -> 2215
13:40:53:254 -> 1939
13:40:53:264 -> 2218
13:40:53:274 -> 1949
13:40:53:284 -> 2209
13:40:53:313 -> 1946
13:40:53:320 -> 2218
13:40:53:320 -> 1947
13:40:53:334 -> 2190
13:40:53:334 -> 1950
13:40:53:353 -> 2190
13:40:53:354 -> 1970
13:40:53:365 -> 2178
13:40:53:377 -> 1976
13:40:53:386 -> 2188
13:40:53:395 -> 1964
13:40:53:405 -> 2175
13:40:53:415 -> 1959
13:40:53:425 -> 2165
13:40:53:435 -> 1963
13:40:53:445 -> 2186
13:40:53:455 -> 1975
13:40:53:465 -> 2173
13:40:53:475 -> 1977
13:40:53:505 -> 2164
13:40:53:506 -> 1996
13:40:53:506 -> 2168
13:40:53:515 -> 1983
13:40:53:526 -> 2169
13:40:53:535 -> 1998
13:40:53:545 -> 2137
13:40:53:559 -> 2005
13:40:53:568 -> 2164
13:40:53:575 -> 2008
13:40:53:586 -> 2146
13:40:53:596 -> 2026
13:40:53:606 -> 2148
13:40:53:616 -> 2022
13:40:53:626 -> 2132
13:40:53:636 -> 2030
13:40:53:646 -> 2137
13:40:53:656 -> 2014
13:40:53:666 -> 2139
13:40:53:676 -> 2017
13:40:53:686 -> 2111
13:40:53:697 -> 2044
13:40:53:707 -> 2131
13:40:53:716 -> 2039
13:40:53:726 -> 2113
13:40:53:736 -> 2050
13:40:53:746 -> 2123
13:40:53:756 -> 2040
13:40:53:766 -> 2113
13:40:53:776 -> 2057
13:40:53:789 -> 2128
13:40:53:796 -> 2043
13:40:53:806 -> 2113
13:40:53:818 -> 2060
13:40:53:827 -> 2117
13:40:53:837 -> 2040
13:40:53:847 -> 2121
13:40:53:857 -> 2063
13:40:53:867 -> 2095
13:40:53:877 -> 2038
13:40:53:887 -> 2131
13:40:53:897 -> 2048
13:40:53:907 -> 2093
13:40:53:917 -> 2062
13:40:53:927 -> 2113
13:40:53:937 -> 2088
13:40:53:947 -> 2096
13:40:53:957 -> 2047
13:40:53:967 -> 2123
13:40:53:977 -> 2036
13:40:53:987 -> 2106
13:40:53:997 -> 2069
13:40:54:040 -> 2073
13:40:54:041 -> 2052
13:40:54:041 -> 2080
13:40:54:041 -> 2059
13:40:54:048 -> 2080
13:40:54:058 -> 2071
13:40:54:068 -> 2087
13:40:54:081 -> 2086
13:40:54:088 -> 2055
13:40:54:098 -> 2081
13:40:54:117 -> 2081
13:40:54:119 -> 2061
13:40:54:128 -> 2075
13:40:54:138 -> 2078
13:40:54:148 -> 2064
13:40:54:158 -> 2083
13:40:54:168 -> 2065
13:40:54:178 -> 2070
13:40:54:188 -> 2056
13:40:54:198 -> 2075
13:40:54:208 -> 2058
13:40:54:218 -> 2111
13:40:54:228 -> 2067
13:40:54:238 -> 2090
13:40:54:248 -> 2064
13:40:54:259 -> 2101
13:40:54:269 -> 2050
13:40:54:286 -> 2102
13:40:54:289 -> 2047
13:40:54:300 -> 2128
13:40:54:309 -> 2031
13:40:54:319 -> 2140
13:40:54:329 -> 2010
13:40:54:339 -> 2167
13:40:54:349 -> 1993
13:40:54:359 -> 2167
13:40:54:369 -> 1999
13:40:54:380 -> 2151
13:40:54:392 -> 1997
13:40:54:404 -> 2155
13:40:54:409 -> 2005
13:40:54:420 -> 2142
13:40:54:431 -> 2018
13:40:54:439 -> 2125
13:40:54:449 -> 2033
13:40:54:461 -> 2117
13:40:54:469 -> 2068
13:40:54:480 -> 2125
13:40:54:489 -> 2063
13:40:54:499 -> 2099
13:40:54:510 -> 2070
13:40:54:520 -> 2072
13:40:54:530 -> 2056
13:40:54:558 -> 2091
13:40:54:571 -> 2073
13:40:54:571 -> 2099
13:40:54:571 -> 2067
13:40:54:580 -> 2084
13:40:54:590 -> 2081
13:40:54:600 -> 2091
13:40:54:610 -> 2068
13:40:54:620 -> 2091
13:40:54:630 -> 2068
13:40:54:640 -> 2075
13:40:54:650 -> 2087
13:40:54:660 -> 2083
13:40:54:670 -> 2085
13:40:54:680 -> 2065
13:40:54:690 -> 2067
13:40:54:700 -> 2106
13:40:54:710 -> 2060
13:40:54:720 -> 2126
13:40:54:731 -> 2029
13:40:54:741 -> 2127
13:40:54:751 -> 2027
13:40:54:761 -> 2135
13:40:54:771 -> 2038
13:40:54:781 -> 2138
13:40:54:791 -> 2041
13:40:54:805 -> 2130
13:40:54:811 -> 2028
13:40:54:821 -> 2111
13:40:54:831 -> 2032
13:40:54:841 -> 2112
13:40:54:851 -> 2073
13:40:54:861 -> 2097
13:40:54:871 -> 2050
13:40:54:881 -> 2116
13:40:54:891 -> 2036
13:40:54:901 -> 2098
13:40:54:911 -> 2036
13:40:54:921 -> 2118
13:40:54:931 -> 2005
13:40:54:941 -> 2134
13:40:54:952 -> 2013
13:40:54:962 -> 2143
13:40:54:972 -> 2037
13:40:54:982 -> 2151
13:40:54:992 -> 2015
13:40:55:002 -> 2148
13:40:55:012 -> 1999
13:40:55:022 -> 2157
13:40:55:032 -> 2010
13:40:55:042 -> 2168
13:40:55:052 -> 1983
13:40:55:084 -> 2180
13:40:55:086 -> 1977
13:40:55:086 -> 2186
13:40:55:103 -> 1995
13:40:55:104 -> 2176
13:40:55:112 -> 1986
13:40:55:123 -> 2184
13:40:55:133 -> 1981
13:40:55:142 -> 2178
13:40:55:152 -> 1965
13:40:55:164 -> 2158
13:40:55:172 -> 2002
13:40:55:183 -> 2164
13:40:55:194 -> 1979
13:40:55:203 -> 2169
13:40:55:213 -> 1972
13:40:55:223 -> 2171
13:40:55:261 -> 1985
13:40:55:295 -> 2184
13:40:55:295 -> 1960
13:40:55:295 -> 2194
13:40:55:295 -> 1941
13:40:55:295 -> 2195
13:40:55:295 -> 1949
13:40:55:316 -> 2226
13:40:55:316 -> 1952
13:40:55:323 -> 2217
13:40:55:333 -> 1935
13:40:55:347 -> 2225
13:40:55:359 -> 1937
13:40:55:364 -> 2217
13:40:55:374 -> 1943
13:40:55:384 -> 2230
13:40:55:395 -> 1926
13:40:55:404 -> 2221
13:40:55:414 -> 1924
13:40:55:424 -> 2239
13:40:55:445 -> 1910
13:40:55:449 -> 2248
13:40:55:454 -> 1935
13:40:55:464 -> 2235
13:40:55:474 -> 1932
13:40:55:484 -> 2240
13:40:55:494 -> 1923
13:40:55:504 -> 2228
13:40:55:514 -> 1935
13:40:55:524 -> 2222
13:40:55:541 -> 1950
13:40:55:555 -> 2201
13:40:55:555 -> 1945
13:40:55:566 -> 2229
13:40:55:574 -> 1948
13:40:55:615 -> 2226
13:40:55:616 -> 1942
13:40:55:616 -> 2213
13:40:55:616 -> 1968
13:40:55:625 -> 2204
13:40:55:635 -> 1953
13:40:55:645 -> 2197
13:40:55:655 -> 1954
13:40:55:666 -> 2188
13:40:55:675 -> 1947
13:40:55:686 -> 2171
13:40:55:695 -> 1951
13:40:55:706 -> 2183
13:40:55:715 -> 1952
13:40:55:726 -> 2169
13:40:55:735 -> 1967
13:40:55:745 -> 2183
13:40:55:755 -> 1959
13:40:55:765 -> 2192
13:40:55:775 -> 1953
13:40:55:785 -> 2189
13:40:55:795 -> 1992
13:40:55:808 -> 2158
13:40:55:815 -> 1973
13:40:55:825 -> 2179
13:40:55:837 -> 1991
13:40:55:845 -> 2160
13:40:55:856 -> 1986
13:40:55:866 -> 2159
13:40:55:877 -> 1987
13:40:55:886 -> 2160
13:40:55:896 -> 1982
13:40:55:906 -> 2147
13:40:55:916 -> 2018
13:40:55:926 -> 2147
13:40:55:936 -> 2012
13:40:55:948 -> 2135
13:40:55:956 -> 2028
13:40:55:966 -> 2133
13:40:55:976 -> 2016
13:40:55:986 -> 2149
13:40:55:999 -> 2010
13:40:56:006 -> 2142
13:40:56:016 -> 2025
13:40:56:026 -> 2117
13:40:56:036 -> 2037
13:40:56:046 -> 2123
13:40:56:056 -> 2030
13:40:56:066 -> 2115
13:40:56:076 -> 2038
13:40:56:086 -> 2130
13:40:56:097 -> 2049
13:40:56:107 -> 2120
13:40:56:139 -> 2047
13:40:56:140 -> 2147
13:40:56:140 -> 2056
13:40:56:147 -> 2126
13:40:56:157 -> 2049
13:40:56:167 -> 2127
13:40:56:177 -> 2039
13:40:56:187 -> 2115
13:40:56:197 -> 2051
13:40:56:207 -> 2104
13:40:56:222 -> 2040
13:40:56:229 -> 2117
13:40:56:237 -> 2061
13:40:56:248 -> 2084
13:40:56:275 -> 2054
13:40:56:275 -> 2120
13:40:56:279 -> 2060
13:40:56:288 -> 2091
13:40:56:298 -> 2051
13:40:56:308 -> 2099
13:40:56:318 -> 2066
13:40:56:328 -> 2091
13:40:56:338 -> 2079
13:40:56:348 -> 2086
13:40:56:359 -> 2072
13:40:56:368 -> 2092
13:40:56:378 -> 2070
13:40:56:388 -> 2069
13:40:56:398 -> 2089
13:40:56:408 -> 2070
13:40:56:418 -> 2102
13:40:56:428 -> 2079
13:40:56:438 -> 2089
13:40:56:448 -> 2084
13:40:56:458 -> 2082
13:40:56:468 -> 2081
13:40:56:478 -> 2079
13:40:56:488 -> 2066
13:40:56:498 -> 2084
13:40:56:508 -> 2066
13:40:56:522 -> 2117
13:40:56:528 -> 2082
13:40:56:539 -> 2101
13:40:56:549 -> 2070
13:40:56:559 -> 2104
13:40:56:569 -> 2043
13:40:56:579 -> 2080
13:40:56:589 -> 2070
13:40:56:600 -> 2127
13:40:56:609 -> 2068
13:40:56:619 -> 2126
13:40:56:629 -> 2063
13:40:56:639 -> 2119
13:40:56:664 -> 2044
13:40:56:666 -> 2118
13:40:56:669 -> 1981
13:40:56:679 -> 2146
13:40:56:689 -> 2070
13:40:56:701 -> 2142
13:40:56:709 -> 2043
13:40:56:719 -> 2183
13:40:56:749 -> 2014
13:40:56:768 -> 2159
13:40:56:768 -> 2033
13:40:56:768 -> 2171
13:40:56:801 -> 1999
13:40:56:801 -> 2129
13:40:56:801 -> 1939
13:40:56:801 -> 2102
13:40:56:831 -> 2002
13:40:56:831 -> 2143
13:40:56:831 -> 2004
13:40:56:849 -> 2109
13:40:56:864 -> 2053
13:40:56:864 -> 2098
13:40:56:870 -> 2051
13:40:56:880 -> 2049
13:40:56:890 -> 2045
13:40:56:900 -> 2096
13:40:56:910 -> 2094
13:40:56:922 -> 2086
13:40:56:930 -> 2087
13:40:56:940 -> 2079
13:40:56:950 -> 2075
13:40:56:960 -> 2081
13:40:56:970 -> 2102
13:40:56:981 -> 2089
13:40:56:990 -> 2043
13:40:57:000 -> 2097
13:40:57:011 -> 2072
13:40:57:021 -> 2103
13:40:57:033 -> 2086
13:40:57:041 -> 2073
13:40:57:051 -> 2082
13:40:57:061 -> 2081
13:40:57:071 -> 2077
13:40:57:081 -> 2091
13:40:57:091 -> 2084
13:40:57:101 -> 2099
13:40:57:113 -> 2074
13:40:57:121 -> 2117
13:40:57:131 -> 2036
13:40:57:144 -> 2128
13:40:57:151 -> 2017
13:40:57:161 -> 2132
13:40:57:193 -> 2038
13:40:57:194 -> 2122
13:40:57:194 -> 2027
13:40:57:201 -> 2147
13:40:57:212 -> 2060
13:40:57:222 -> 2116
13:40:57:231 -> 2049
13:40:57:242 -> 2100
13:40:57:252 -> 2049
13:40:57:262 -> 2112
13:40:57:272 -> 2036
13:40:57:282 -> 2110
13:40:57:293 -> 2063
13:40:57:302 -> 2092
13:40:57:312 -> 2054
13:40:57:322 -> 2094
13:40:57:337 -> 2061
13:40:57:342 -> 2130
13:40:57:352 -> 2035
13:40:57:362 -> 2131
13:40:57:372 -> 2029
13:40:57:382 -> 2163
13:40:57:392 -> 2029
13:40:57:402 -> 2185
13:40:57:412 -> 1993
13:40:57:423 -> 2159
13:40:57:433 -> 2035
13:40:57:443 -> 2141
13:40:57:453 -> 2004
13:40:57:465 -> 2182
13:40:57:474 -> 1994
13:40:57:484 -> 2185
13:40:57:493 -> 1984
13:40:57:503 -> 2189
13:40:57:514 -> 1968
13:40:57:523 -> 2194
13:40:57:533 -> 1951
13:40:57:543 -> 2172
13:40:57:553 -> 1968
13:40:57:563 -> 2187
13:40:57:573 -> 1964
13:40:57:583 -> 2202
13:40:57:602 -> 1976
13:40:57:604 -> 2176
13:40:57:613 -> 1985
13:40:57:626 -> 2170
13:40:57:633 -> 1937
13:40:57:644 -> 2189
13:40:57:653 -> 1984
13:40:57:663 -> 2191
13:40:57:673 -> 1956
13:40:57:684 -> 2188
13:40:57:715 -> 1930
13:40:57:716 -> 2209
13:40:57:716 -> 1950
13:40:57:724 -> 2224
13:40:57:734 -> 1944
13:40:57:744 -> 2212
13:40:57:754 -> 1946
13:40:57:764 -> 2190
13:40:57:774 -> 1955
13:40:57:784 -> 2225
13:40:57:794 -> 1944
13:40:57:804 -> 2221
13:40:57:814 -> 1922
13:40:57:824 -> 2230
13:40:57:834 -> 1920
13:40:57:844 -> 2213
13:40:57:857 -> 1950
13:40:57:864 -> 2228
13:40:57:874 -> 1930
13:40:57:884 -> 2228
13:40:57:896 -> 1922
13:40:57:905 -> 2233
13:40:57:915 -> 1932
13:40:57:925 -> 2231
13:40:57:935 -> 1933
13:40:57:945 -> 2231
13:40:57:955 -> 1943
13:40:57:965 -> 2239
13:40:57:975 -> 1944
13:40:57:985 -> 2229
13:40:57:995 -> 1939
13:40:58:005 -> 2205
13:40:58:015 -> 1947
13:40:58:025 -> 2192
13:40:58:035 -> 1947
13:40:58:045 -> 2196
13:40:58:055 -> 1934
13:40:58:074 -> 2188
13:40:58:075 -> 1933
13:40:58:087 -> 2200
13:40:58:098 -> 1955
13:40:58:105 -> 2200
13:40:58:115 -> 1957
13:40:58:126 -> 2200
13:40:58:135 -> 1952
13:40:58:146 -> 2208
13:40:58:156 -> 1977
13:40:58:166 -> 2200
13:40:58:176 -> 1962
13:40:58:186 -> 2186
13:40:58:196 -> 1966
13:40:58:206 -> 2190
13:40:58:239 -> 1988
13:40:58:239 -> 2183
13:40:58:239 -> 2019
13:40:58:246 -> 2158
13:40:58:256 -> 1981
13:40:58:266 -> 2166
13:40:58:289 -> 1985
13:40:58:294 -> 2188
13:40:58:299 -> 1981
13:40:58:306 -> 2168
13:40:58:316 -> 1991
13:40:58:326 -> 2145
13:40:58:338 -> 2002
13:40:58:346 -> 2152
13:40:58:356 -> 2008
13:40:58:367 -> 2131
13:40:58:377 -> 2005
13:40:58:387 -> 2139
13:40:58:397 -> 2033
13:40:58:407 -> 2119
13:40:58:417 -> 2018
13:40:58:427 -> 2135
13:40:58:437 -> 2020
13:40:58:447 -> 2128
13:40:58:457 -> 2016
13:40:58:468 -> 2129
13:40:58:477 -> 2011
13:40:58:487 -> 2125
13:40:58:497 -> 2017
13:40:58:508 -> 2129
13:40:58:517 -> 2030
13:40:58:527 -> 2112
13:40:58:543 -> 2035
13:40:58:551 -> 2131
13:40:58:557 -> 2046
13:40:58:567 -> 2116
13:40:58:583 -> 2056
13:40:58:587 -> 2105
13:40:58:598 -> 2061
13:40:58:608 -> 2116
13:40:58:618 -> 2052
13:40:58:628 -> 2092
13:40:58:638 -> 2054
13:40:58:648 -> 2115
13:40:58:658 -> 2026
13:40:58:668 -> 2095
13:40:58:678 -> 2055
13:40:58:688 -> 2110
13:40:58:699 -> 2056
13:40:58:708 -> 2090
13:40:58:718 -> 2039
13:40:58:728 -> 2112
13:40:58:738 -> 2044
13:40:58:761 -> 2096
13:40:58:761 -> 2101
13:40:58:769 -> 2095
13:40:58:778 -> 2096
13:40:58:804 -> 2102
13:40:58:838 -> 2067
13:40:58:838 -> 2094
13:40:58:838 -> 2086
13:40:58:838 -> 2078
13:40:58:857 -> 2048
13:40:58:857 -> 2072
13:40:58:860 -> 2068
13:40:58:871 -> 2086
13:40:58:889 -> 2085
13:40:58:889 -> 2100
13:40:58:899 -> 2076
13:40:58:909 -> 2087
13:40:58:919 -> 2106
13:40:58:929 -> 2072
13:40:58:939 -> 2088
13:40:58:949 -> 2069
13:40:58:960 -> 2095
13:40:58:976 -> 2054
13:40:58:984 -> 2097
13:40:58:990 -> 2052
13:40:58:999 -> 2081
13:40:59:009 -> 2081
13:40:59:019 -> 2083
13:40:59:029 -> 2067
13:40:59:040 -> 2093
13:40:59:050 -> 2065
13:40:59:060 -> 2102
13:40:59:075 -> 2050
13:40:59:084 -> 2129
13:40:59:092 -> 2041
13:40:59:100 -> 2138
13:40:59:110 -> 2013
13:40:59:122 -> 2170
13:40:59:131 -> 2007
13:40:59:140 -> 2157
13:40:59:150 -> 1994
13:40:59:160 -> 2135
13:40:59:170 -> 1993
13:40:59:181 -> 2157
13:40:59:190 -> 1998
13:40:59:200 -> 2162
13:40:59:210 -> 1996
13:40:59:220 -> 2143
13:40:59:230 -> 2021
13:40:59:240 -> 2113
13:40:59:250 -> 2031
13:40:59:285 -> 2131
13:40:59:287 -> 2061
13:40:59:287 -> 2075
13:40:59:291 -> 2067
13:40:59:301 -> 2097
13:40:59:311 -> 2074
13:40:59:321 -> 2085
13:40:59:332 -> 2069
13:40:59:350 -> 2098
13:40:59:351 -> 2083
13:40:59:361 -> 2079
13:40:59:371 -> 2091
13:40:59:384 -> 2055
13:40:59:391 -> 2073
13:40:59:401 -> 2088
13:40:59:411 -> 2089
13:40:59:421 -> 2094
13:40:59:431 -> 2067
13:40:59:441 -> 2094
13:40:59:451 -> 2079
13:40:59:461 -> 2085
13:40:59:471 -> 2058
13:40:59:481 -> 2091
13:40:59:491 -> 2057
13:40:59:502 -> 2109
13:40:59:511 -> 2062
13:40:59:523 -> 2135
13:40:59:532 -> 2039
13:40:59:542 -> 2136
13:40:59:552 -> 2034
13:40:59:562 -> 2087
13:40:59:572 -> 2050
13:40:59:590 -> 2108
13:40:59:592 -> 2058
13:40:59:607 -> 2117
13:40:59:612 -> 2041
13:40:59:622 -> 2095
13:40:59:632 -> 2064
13:40:59:642 -> 2110
13:40:59:652 -> 2066
13:40:59:662 -> 2123
13:40:59:672 -> 2044
13:40:59:683 -> 2086
13:40:59:692 -> 2063
13:40:59:702 -> 2110
13:40:59:713 -> 2025
13:40:59:723 -> 2107
13:40:59:732 -> 2037
13:40:59:743 -> 2157
13:40:59:753 -> 2035
13:40:59:771 -> 2129
13:40:59:773 -> 2013
13:40:59:783 -> 2169
13:40:59:808 -> 2007
13:40:59:811 -> 2165
13:40:59:813 -> 2007
13:40:59:823 -> 2149
13:40:59:833 -> 2008
13:40:59:843 -> 2178
13:40:59:853 -> 2007
13:40:59:863 -> 2173
13:40:59:873 -> 2004
13:40:59:883 -> 2161
13:40:59:894 -> 1975
13:40:59:903 -> 2181
13:40:59:913 -> 1975
13:40:59:923 -> 2193
13:40:59:933 -> 1994
13:40:59:943 -> 2192
13:40:59:953 -> 1971
13:40:59:964 -> 2163
13:40:59:974 -> 1992
13:40:59:984 -> 2160
13:40:59:994 -> 1975
13:41:00:004 -> 2139
13:41:00:014 -> 1938
13:41:00:024 -> 2198
13:41:00:036 -> 1964
13:41:00:044 -> 2201
13:41:00:055 -> 1943
13:41:00:064 -> 2196
13:41:00:074 -> 1962
13:41:00:084 -> 2197
13:41:00:094 -> 1951
13:41:00:104 -> 2206
13:41:00:114 -> 1929
13:41:00:124 -> 2231
13:41:00:134 -> 1916
13:41:00:144 -> 2231
13:41:00:154 -> 1947
13:41:00:164 -> 2234
13:41:00:175 -> 1932
13:41:00:184 -> 2234
13:41:00:194 -> 1936
13:41:00:215 -> 2228
13:41:00:227 -> 1928
13:41:00:227 -> 2223
13:41:00:235 -> 1937
13:41:00:245 -> 2232
13:41:00:255 -> 1932
13:41:00:265 -> 2239
13:41:00:276 -> 1937
13:41:00:285 -> 2237
13:41:00:295 -> 1948
13:41:00:305 -> 2212
13:41:00:330 -> 1936
13:41:00:331 -> 2214
13:41:00:335 -> 1918
13:41:00:345 -> 2229
13:41:00:355 -> 1951
13:41:00:365 -> 2224
13:41:00:376 -> 1954
13:41:00:385 -> 2212
13:41:00:395 -> 1932
13:41:00:406 -> 2201
13:41:00:415 -> 1949
13:41:00:426 -> 2201
13:41:00:436 -> 1951
13:41:00:446 -> 2191
13:41:00:456 -> 1933
13:41:00:466 -> 2190
13:41:00:476 -> 1963
13:41:00:493 -> 2179
13:41:00:496 -> 1960
13:41:00:506 -> 2190
13:41:00:516 -> 1949
13:41:00:529 -> 2170
13:41:00:545 -> 1965
13:41:00:571 -> 2167
13:41:00:571 -> 1975
13:41:00:571 -> 2175
13:41:00:611 -> 1992
13:41:00:611 -> 2170
13:41:00:611 -> 1980
13:41:00:611 -> 2186
13:41:00:633 -> 1990
13:41:00:633 -> 2147
13:41:00:636 -> 1997
13:41:00:647 -> 2154
13:41:00:657 -> 1973
13:41:00:668 -> 2130
13:41:00:677 -> 2012
13:41:00:687 -> 2140
13:41:00:697 -> 1999
13:41:00:707 -> 2144
13:41:00:717 -> 2015
13:41:00:727 -> 2123
13:41:00:738 -> 2022
13:41:00:747 -> 2130
13:41:00:757 -> 2011
13:41:00:767 -> 2128
13:41:00:777 -> 2033
13:41:00:787 -> 2128
13:41:00:797 -> 2003
13:41:00:807 -> 2142
13:41:00:825 -> 2008
13:41:00:827 -> 2145
13:41:00:853 -> 2010
13:41:00:853 -> 2139
13:41:00:857 -> 2045
13:41:00:867 -> 2104
13:41:00:878 -> 2039
13:41:00:888 -> 2135
13:41:00:898 -> 2026
13:41:00:908 -> 2123
13:41:00:918 -> 2081
13:41:00:928 -> 2113
13:41:00:938 -> 2063
13:41:00:948 -> 2121
13:41:00:958 -> 2028
13:41:00:968 -> 2117
13:41:00:978 -> 2060
13:41:00:988 -> 2104
13:41:01:004 -> 2058
13:41:01:008 -> 2106
13:41:01:019 -> 2058
13:41:01:029 -> 2130
13:41:01:038 -> 2052
13:41:01:048 -> 2118
13:41:01:058 -> 2040
13:41:01:069 -> 2097
13:41:01:081 -> 2072
13:41:01:088 -> 2091
13:41:01:099 -> 2086
13:41:01:109 -> 2092
13:41:01:119 -> 2076
13:41:01:134 -> 2087
13:41:01:139 -> 2079
13:41:01:149 -> 2096
13:41:01:161 -> 2042
13:41:01:179 -> 2112
13:41:01:189 -> 2064
13:41:01:199 -> 2090
13:41:01:173 -> 2081
13:41:01:210 -> 2087
13:41:01:219 -> 2084
13:41:01:229 -> 2065
13:41:01:239 -> 2079
13:41:01:249 -> 2070
13:41:01:270 -> 2077
13:41:01:272 -> 2051
13:41:01:279 -> 2104
13:41:01:290 -> 2050
13:41:01:299 -> 2091
13:41:01:309 -> 2078
13:41:01:319 -> 2108
13:41:01:330 -> 2084
13:41:01:340 -> 2090
13:41:01:350 -> 2060
13:41:01:379 -> 2108
13:41:01:381 -> 2041
13:41:01:381 -> 2103
13:41:01:390 -> 2048
13:41:01:400 -> 2119
13:41:01:410 -> 2024
13:41:01:420 -> 2142
13:41:01:430 -> 2009
13:41:01:440 -> 2146
13:41:01:450 -> 1996
13:41:01:460 -> 2164
13:41:01:470 -> 1977
13:41:01:480 -> 2168
13:41:01:491 -> 1988
13:41:01:515 -> 2142
13:41:01:516 -> 1995
13:41:01:521 -> 2151
13:41:01:532 -> 2034
13:41:01:541 -> 2092
13:41:01:581 -> 2050
13:41:01:581 -> 2122
13:41:01:581 -> 2031
13:41:01:608 -> 2087
13:41:01:608 -> 2071
13:41:01:608 -> 2092
13:41:01:629 -> 2073
13:41:01:629 -> 2043
13:41:01:692 -> 2098
13:41:01:692 -> 2082
13:41:01:692 -> 2075
13:41:01:699 -> 2086
13:41:01:699 -> 2040
13:41:01:699 -> 2092
13:41:01:699 -> 2066
13:41:01:701 -> 2089
13:41:01:711 -> 2073
13:41:01:721 -> 2086
13:41:01:731 -> 2063
13:41:01:741 -> 2096
13:41:01:751 -> 2061
13:41:01:761 -> 2089
13:41:01:771 -> 2078
13:41:01:781 -> 2063
13:41:01:792 -> 2079
13:41:01:802 -> 2112
13:41:01:812 -> 2070
13:41:01:822 -> 2100
13:41:01:832 -> 2031
13:41:01:842 -> 2127
13:41:01:852 -> 2011
13:41:01:865 -> 2132
13:41:01:873 -> 2045
13:41:01:911 -> 2112
13:41:01:912 -> 2039
13:41:01:912 -> 2134
13:41:01:913 -> 2040
13:41:01:922 -> 2111
13:41:01:932 -> 2052
13:41:01:943 -> 2122
13:41:01:952 -> 2064
13:41:01:962 -> 2100
13:41:01:972 -> 2064
13:41:01:984 -> 2118
13:41:01:992 -> 2056
13:41:02:002 -> 2123
13:41:02:013 -> 2026
13:41:02:023 -> 2122
13:41:02:033 -> 2030
13:41:02:068 -> 2129
13:41:02:091 -> 2016
13:41:02:091 -> 2129
13:41:02:091 -> 2026
13:41:02:091 -> 2144
13:41:02:126 -> 2002
13:41:02:126 -> 2159
13:41:02:126 -> 2002
13:41:02:134 -> 2156
13:41:02:134 -> 1996
13:41:02:143 -> 2158
13:41:02:182 -> 1994
13:41:02:182 -> 2173
13:41:02:182 -> 1997
13:41:02:194 -> 2174
13:41:02:194 -> 1981
13:41:02:203 -> 2190
13:41:02:214 -> 1965
13:41:02:223 -> 2177
13:41:02:233 -> 1983
13:41:02:244 -> 2156
13:41:02:254 -> 1997
13:41:02:264 -> 2174
13:41:02:275 -> 1986
13:41:02:284 -> 2167
13:41:02:294 -> 1970
13:41:02:304 -> 2161
13:41:02:314 -> 1976
13:41:02:324 -> 2164
13:41:02:334 -> 1962
13:41:02:344 -> 2175
13:41:02:354 -> 1951
13:41:02:364 -> 2193
13:41:02:374 -> 1951
13:41:02:384 -> 2175
13:41:02:394 -> 1967
13:41:02:404 -> 2223
13:41:02:446 -> 1923
13:41:02:448 -> 2211
13:41:02:448 -> 1934
13:41:02:448 -> 2209
13:41:02:454 -> 1939
13:41:02:465 -> 2224
13:41:02:475 -> 1925
13:41:02:485 -> 2225
13:41:02:497 -> 1920
13:41:02:505 -> 2196
13:41:02:515 -> 1914
13:41:02:525 -> 2242
13:41:02:535 -> 1931
13:41:02:545 -> 2235
13:41:02:555 -> 1932
13:41:02:565 -> 2242
13:41:02:575 -> 1923
13:41:02:585 -> 2244
13:41:02:595 -> 1948
13:41:02:605 -> 2225
13:41:02:615 -> 1927
13:41:02:625 -> 2225
13:41:02:637 -> 1934
13:41:02:645 -> 2214
13:41:02:655 -> 1939
13:41:02:665 -> 2220
13:41:02:675 -> 1933
13:41:02:685 -> 2217
13:41:02:697 -> 1945
13:41:02:705 -> 2208
13:41:02:716 -> 1950
13:41:02:726 -> 2228
13:41:02:736 -> 1962
13:41:02:746 -> 2215
13:41:02:756 -> 1954
13:41:02:766 -> 2204
13:41:02:776 -> 1968
13:41:02:786 -> 2194
13:41:02:797 -> 1936
13:41:02:806 -> 2186
13:41:02:816 -> 1964
13:41:02:826 -> 2183
13:41:02:836 -> 1964
13:41:02:846 -> 2166
13:41:02:856 -> 1967
13:41:02:875 -> 2181
13:41:02:881 -> 1976
13:41:02:886 -> 2177
13:41:02:896 -> 1986
13:41:02:906 -> 2184
13:41:02:916 -> 1992
13:41:02:926 -> 2170
13:41:02:937 -> 1991
13:41:02:981 -> 2155
13:41:02:987 -> 1996
13:41:02:987 -> 2147
13:41:02:987 -> 1999
13:41:02:989 -> 2170
13:41:02:997 -> 2009
13:41:03:007 -> 2139
13:41:03:017 -> 2001
13:41:03:027 -> 2123
13:41:03:037 -> 2011
13:41:03:047 -> 2148
13:41:03:057 -> 2019
13:41:03:068 -> 2132
13:41:03:077 -> 2028
13:41:03:087 -> 2130
13:41:03:110 -> 2039
13:41:03:112 -> 2128
13:41:03:117 -> 2019
13:41:03:127 -> 2122
13:41:03:137 -> 2032
13:41:03:148 -> 2117
13:41:03:158 -> 2025
13:41:03:168 -> 2106
13:41:03:178 -> 2037
13:41:03:188 -> 2111
13:41:03:198 -> 2020
13:41:03:208 -> 2102
13:41:03:218 -> 2054
13:41:03:228 -> 2127
13:41:03:238 -> 2032
13:41:03:248 -> 2116
13:41:03:258 -> 2042
13:41:03:268 -> 2116
13:41:03:278 -> 2040
13:41:03:288 -> 2116
13:41:03:298 -> 2039
13:41:03:310 -> 2128
13:41:03:318 -> 2060
13:41:03:328 -> 2124
13:41:03:338 -> 2059
13:41:03:357 -> 2105
13:41:03:358 -> 2075
13:41:03:368 -> 2104
13:41:03:379 -> 2070
13:41:03:389 -> 2084
13:41:03:399 -> 2081
13:41:03:409 -> 2086
13:41:03:419 -> 2096
13:41:03:429 -> 2099
13:41:03:439 -> 2074
13:41:03:449 -> 2080
13:41:03:459 -> 2065
13:41:03:469 -> 2095
13:41:03:499 -> 2091
13:41:03:499 -> 2091
13:41:03:499 -> 2083
13:41:03:509 -> 2103
13:41:03:519 -> 2077
13:41:03:530 -> 2096
13:41:03:540 -> 2083
13:41:03:549 -> 2066
13:41:03:560 -> 2077
13:41:03:569 -> 2091
13:41:03:580 -> 2109
13:41:03:590 -> 2076
13:41:03:600 -> 2112
13:41:03:631 -> 2068
13:41:03:635 -> 2083
13:41:03:635 -> 2056
13:41:03:640 -> 2101
13:41:03:650 -> 2079
13:41:03:660 -> 2090
13:41:03:670 -> 2058
13:41:03:682 -> 2101
13:41:03:690 -> 2056
13:41:03:703 -> 2100
13:41:03:725 -> 2056
13:41:03:725 -> 2097
13:41:03:756 -> 2058
13:41:03:756 -> 2115
13:41:03:756 -> 2040
13:41:03:760 -> 2129
13:41:03:774 -> 2033
13:41:03:791 -> 2128
13:41:03:791 -> 2014
13:41:03:801 -> 2140
13:41:03:811 -> 2011
13:41:03:822 -> 2157
13:41:03:830 -> 1991
13:41:03:841 -> 2142
13:41:03:851 -> 2006
13:41:03:861 -> 2140
13:41:03:871 -> 2002
13:41:03:881 -> 2142
13:41:03:891 -> 2017
13:41:03:901 -> 2102
13:41:03:911 -> 2038
13:41:03:921 -> 2128
13:41:03:931 -> 2050
13:41:03:941 -> 2102
13:41:03:951 -> 2044
13:41:03:961 -> 2089
13:41:03:971 -> 2066
13:41:03:982 -> 2102
13:41:03:991 -> 2081
13:41:04:028 -> 2069
13:41:04:030 -> 2069
13:41:04:030 -> 2083
13:41:04:031 -> 2074
13:41:04:042 -> 2082
13:41:04:053 -> 2063
13:41:04:062 -> 2082
13:41:04:071 -> 2070
13:41:04:082 -> 2083
13:41:04:092 -> 2071
13:41:04:102 -> 2093
13:41:04:112 -> 2094
13:41:04:124 -> 2078
13:41:04:132 -> 2083
13:41:04:142 -> 2093
13:41:04:152 -> 2071
13:41:04:162 -> 2081
13:41:04:172 -> 2042
13:41:04:182 -> 2125
13:41:04:192 -> 2037
13:41:04:202 -> 2105
13:41:04:213 -> 2049
13:41:04:237 -> 2124
13:41:04:246 -> 2043
13:41:04:246 -> 2123
13:41:04:252 -> 2038
13:41:04:263 -> 2135
13:41:04:272 -> 2043
13:41:04:282 -> 2127
13:41:04:292 -> 2058
13:41:04:302 -> 2116
13:41:04:313 -> 2052
13:41:04:323 -> 2119
13:41:04:333 -> 2049
13:41:04:343 -> 2105
13:41:04:353 -> 2042
13:41:04:363 -> 2105
13:41:04:373 -> 2054
13:41:04:383 -> 2120
13:41:04:393 -> 2038
13:41:04:403 -> 2132
13:41:04:413 -> 2024
13:41:04:423 -> 2138
13:41:04:433 -> 2013
13:41:04:443 -> 2139
13:41:04:453 -> 2002
13:41:04:463 -> 2153
13:41:04:473 -> 2011
13:41:04:483 -> 2160
13:41:04:503 -> 1996
13:41:04:504 -> 2186
13:41:04:514 -> 2008
13:41:04:525 -> 2165
13:41:04:555 -> 2009
13:41:04:556 -> 2178
13:41:04:556 -> 1983
13:41:04:564 -> 2170
13:41:04:574 -> 1970
13:41:04:584 -> 2180
13:41:04:594 -> 1948
13:41:04:604 -> 2200
13:41:04:614 -> 1939
13:41:04:624 -> 2168
13:41:04:634 -> 1959
13:41:04:644 -> 2176
13:41:04:654 -> 1963
13:41:04:664 -> 2163
13:41:04:674 -> 1978
13:41:04:684 -> 2174
13:41:04:694 -> 1968
13:41:04:704 -> 2169
13:41:04:714 -> 1973
13:41:04:724 -> 2173
13:41:04:734 -> 1975
13:41:04:755 -> 2171
13:41:04:757 -> 1957
13:41:04:765 -> 2185
13:41:04:775 -> 1975
13:41:04:785 -> 2209
13:41:04:795 -> 1944
13:41:04:805 -> 2204
13:41:04:815 -> 1945
13:41:04:825 -> 2210
13:41:04:835 -> 1933
13:41:04:845 -> 2216
13:41:04:855 -> 1921
13:41:04:865 -> 2227
13:41:04:875 -> 1938
13:41:04:885 -> 2234
13:41:04:896 -> 1919
13:41:04:905 -> 2247
13:41:04:915 -> 1917
13:41:04:925 -> 2241
13:41:04:935 -> 1926
13:41:04:945 -> 2212
13:41:04:955 -> 1931
13:41:04:970 -> 2229
13:41:04:975 -> 1941
13:41:04:985 -> 2245
13:41:04:996 -> 1916
13:41:05:005 -> 2246
13:41:05:015 -> 1924
13:41:05:026 -> 2226
13:41:05:036 -> 1933
13:41:05:046 -> 2215
13:41:05:084 -> 1944
13:41:05:086 -> 2198
13:41:05:086 -> 1965
13:41:05:087 -> 2198
13:41:05:096 -> 1957
13:41:05:106 -> 2214
13:41:05:116 -> 1896
13:41:05:126 -> 2221
13:41:05:138 -> 1959
13:41:05:146 -> 2204
13:41:05:156 -> 1950
13:41:05:166 -> 2203
13:41:05:176 -> 1956
13:41:05:186 -> 2197
13:41:05:196 -> 1962
13:41:05:206 -> 2170
13:41:05:216 -> 1961
13:41:05:226 -> 2188
13:41:05:240 -> 1967
13:41:05:247 -> 2177
13:41:05:257 -> 1965
13:41:05:267 -> 2181
13:41:05:277 -> 1978
13:41:05:287 -> 2167
13:41:05:297 -> 1973
13:41:05:307 -> 2149
13:41:05:317 -> 1980
13:41:05:327 -> 2169
13:41:05:337 -> 1980
13:41:05:347 -> 2163
13:41:05:357 -> 1989
13:41:05:368 -> 2166
13:41:05:377 -> 2014
13:41:05:387 -> 2141
13:41:05:397 -> 1998
13:41:05:407 -> 2151
13:41:05:417 -> 1992
13:41:05:427 -> 2144
13:41:05:438 -> 2003
13:41:05:447 -> 2138
13:41:05:458 -> 1998
13:41:05:467 -> 2150
13:41:05:477 -> 1998
13:41:05:488 -> 2103
13:41:05:504 -> 2036
13:41:05:508 -> 2129
13:41:05:519 -> 2008
13:41:05:539 -> 2100
13:41:05:551 -> 2016
13:41:05:551 -> 2134
13:41:05:559 -> 2041
13:41:05:610 -> 2126
13:41:05:645 -> 2037
13:41:05:645 -> 2096
13:41:05:645 -> 2039
13:41:05:645 -> 2091
13:41:05:645 -> 2031
13:41:05:645 -> 2125
13:41:05:645 -> 2013
13:41:05:669 -> 2102
13:41:05:669 -> 2024
13:41:05:669 -> 2110
13:41:05:694 -> 2036
13:41:05:708 -> 2123
13:41:05:708 -> 2036
13:41:05:710 -> 2100
13:41:05:720 -> 2061
13:41:05:731 -> 2129
13:41:05:739 -> 2055
13:41:05:749 -> 2107
13:41:05:759 -> 2074
13:41:05:770 -> 2094
13:41:05:779 -> 2081
13:41:05:789 -> 2086
13:41:05:804 -> 2082
13:41:05:809 -> 2091
13:41:05:820 -> 2089
13:41:05:829 -> 2077
13:41:05:839 -> 2062
13:41:05:849 -> 2085
13:41:05:859 -> 2101
13:41:05:869 -> 2083
13:41:05:880 -> 2083
13:41:05:889 -> 2088
13:41:05:899 -> 2101
13:41:05:909 -> 2083
13:41:05:919 -> 2098
13:41:05:930 -> 2078
13:41:05:940 -> 2082
13:41:05:950 -> 2042
13:41:05:960 -> 2086
13:41:05:970 -> 2069
13:41:05:980 -> 2079
13:41:05:990 -> 2053
13:41:06:006 -> 2104
13:41:06:010 -> 2080
13:41:06:023 -> 2087
13:41:06:030 -> 2080
13:41:06:040 -> 2060
13:41:06:051 -> 2058
13:41:06:060 -> 2078
13:41:06:070 -> 2073
13:41:06:081 -> 2081
13:41:06:092 -> 2066
13:41:06:105 -> 2093
13:41:06:137 -> 2029
13:41:06:138 -> 2090
13:41:06:138 -> 2062
13:41:06:140 -> 2088
13:41:06:151 -> 2012
13:41:06:161 -> 2131
13:41:06:171 -> 2017
13:41:06:181 -> 2144
13:41:06:191 -> 1989
13:41:06:201 -> 2156
13:41:06:211 -> 2003
13:41:06:221 -> 2156
13:41:06:231 -> 2015
13:41:06:241 -> 2138
13:41:06:251 -> 2019
13:41:06:261 -> 2161
13:41:06:278 -> 2001
13:41:06:283 -> 2123
13:41:06:291 -> 2038
13:41:06:302 -> 2123
13:41:06:313 -> 2045
13:41:06:323 -> 2100
13:41:06:331 -> 2068
13:41:06:341 -> 2097
13:41:06:351 -> 2085
13:41:06:361 -> 2093
13:41:06:371 -> 2064
13:41:06:381 -> 2085
13:41:06:392 -> 2077
13:41:06:402 -> 2097
13:41:06:412 -> 2073
13:41:06:422 -> 2065
13:41:06:432 -> 2065
13:41:06:442 -> 2089
13:41:06:452 -> 2056
13:41:06:462 -> 2089
13:41:06:472 -> 2080
13:41:06:482 -> 2077
13:41:06:492 -> 2072
13:41:06:502 -> 2071
13:41:06:515 -> 2066
13:41:06:524 -> 2076
13:41:06:533 -> 2071
13:41:06:542 -> 2089
13:41:06:552 -> 2055
13:41:06:562 -> 2123
13:41:06:572 -> 2047
13:41:06:584 -> 2097
13:41:06:592 -> 2034
13:41:06:602 -> 2133
13:41:06:614 -> 2045
13:41:06:622 -> 2120
13:41:06:632 -> 2029
13:41:06:662 -> 2127
13:41:06:663 -> 2039
13:41:06:663 -> 2136
13:41:06:673 -> 2050
13:41:06:683 -> 2088
13:41:06:693 -> 2056
13:41:06:703 -> 2116
13:41:06:713 -> 2050
13:41:06:723 -> 2110
13:41:06:733 -> 2069
13:41:06:743 -> 2118
13:41:06:753 -> 2047
13:41:06:765 -> 2123
13:41:06:773 -> 2049
13:41:06:783 -> 2141
13:41:06:793 -> 2029
13:41:06:803 -> 2134
13:41:06:821 -> 1998
13:41:06:823 -> 2131
13:41:06:833 -> 2010
13:41:06:847 -> 2150
13:41:06:853 -> 1999
13:41:06:864 -> 2183
13:41:06:874 -> 1999
13:41:06:884 -> 2187
13:41:06:894 -> 1978
13:41:06:904 -> 2168
13:41:06:914 -> 1981
13:41:06:924 -> 2160
13:41:06:934 -> 1986
13:41:06:944 -> 2166
13:41:06:954 -> 1981
13:41:06:964 -> 2188
13:41:06:974 -> 1964
13:41:06:984 -> 2183
13:41:06:994 -> 1975
13:41:07:004 -> 2185
13:41:07:014 -> 1964
13:41:07:024 -> 2148
13:41:07:034 -> 1975
13:41:07:044 -> 2122
13:41:07:054 -> 1992
13:41:07:077 -> 2158
13:41:07:085 -> 1982
13:41:07:086 -> 2159
13:41:07:094 -> 1952
13:41:07:105 -> 2157
13:41:07:115 -> 1963
13:41:07:125 -> 2181
13:41:07:135 -> 1926
13:41:07:145 -> 2202
13:41:07:155 -> 1950
13:41:07:189 -> 2211
13:41:07:190 -> 1917
13:41:07:190 -> 2205
13:41:07:195 -> 1964
13:41:07:205 -> 2238
13:41:07:246 -> 1909
13:41:07:258 -> 2228
13:41:07:258 -> 1959
13:41:07:258 -> 2237
13:41:07:258 -> 1923
13:41:07:282 -> 2230
13:41:07:282 -> 1931
13:41:07:289 -> 2255
13:41:07:296 -> 1927
13:41:07:305 -> 2241
13:41:07:317 -> 1915
13:41:07:331 -> 2249
13:41:07:336 -> 1915
13:41:07:346 -> 2230
13:41:07:356 -> 1917
13:41:07:366 -> 2248
13:41:07:376 -> 1938
13:41:07:397 -> 2225
13:41:07:399 -> 1952
13:41:07:406 -> 2227
13:41:07:416 -> 1946
13:41:07:426 -> 2222
13:41:07:436 -> 1961
13:41:07:447 -> 2211
13:41:07:465 -> 1949
13:41:07:469 -> 2229
13:41:07:476 -> 1937
13:41:07:486 -> 2191
13:41:07:496 -> 1974
13:41:07:507 -> 2173
13:41:07:516 -> 1963
13:41:07:528 -> 2171
13:41:07:536 -> 1960
13:41:07:552 -> 2209
13:41:07:559 -> 1966
13:41:07:566 -> 2205
13:41:07:577 -> 1961
13:41:07:586 -> 2187
13:41:07:597 -> 1943
13:41:07:607 -> 2179
13:41:07:617 -> 1978
13:41:07:627 -> 2154
13:41:07:637 -> 1993
13:41:07:647 -> 2178
13:41:07:657 -> 1990
13:41:07:673 -> 2165
13:41:07:677 -> 1985
13:41:07:687 -> 2152
13:41:07:713 -> 2000
13:41:07:714 -> 2176
13:41:07:717 -> 1971
13:41:07:727 -> 2189
13:41:07:737 -> 1987
13:41:07:747 -> 2155
13:41:07:757 -> 2013
13:41:07:767 -> 2127
13:41:07:777 -> 1994
13:41:07:787 -> 2145
13:41:07:797 -> 2022
13:41:07:808 -> 2125
13:41:07:818 -> 2034
13:41:07:828 -> 2145
13:41:07:838 -> 2010
13:41:07:848 -> 2136
13:41:07:858 -> 2007
13:41:07:868 -> 2129
13:41:07:878 -> 2017
13:41:07:888 -> 2139
13:41:07:898 -> 2016
13:41:07:908 -> 2127
13:41:07:918 -> 2033
13:41:07:928 -> 2138
13:41:07:941 -> 2017
13:41:07:948 -> 2122
13:41:07:958 -> 2042
13:41:07:968 -> 2118
13:41:07:979 -> 2039
13:41:07:988 -> 2092
13:41:07:999 -> 2018
13:41:08:008 -> 2113
13:41:08:018 -> 2047
13:41:08:029 -> 2132
13:41:08:038 -> 2058
13:41:08:049 -> 2118
13:41:08:059 -> 2046
13:41:08:069 -> 2103
13:41:08:080 -> 2054
13:41:08:089 -> 2121
13:41:08:099 -> 2052
13:41:08:109 -> 2111
13:41:08:119 -> 2070
13:41:08:129 -> 2102
13:41:08:139 -> 2080
13:41:08:150 -> 2096
13:41:08:159 -> 2065
13:41:08:169 -> 2104
13:41:08:179 -> 2077
13:41:08:193 -> 2080
13:41:08:199 -> 2084
13:41:08:209 -> 2084
13:41:08:238 -> 2091
13:41:08:240 -> 2086
13:41:08:240 -> 2085
13:41:08:249 -> 2072
13:41:08:259 -> 2071
13:41:08:269 -> 2090
13:41:08:281 -> 2074
13:41:08:289 -> 2090
13:41:08:300 -> 2088
13:41:08:310 -> 2090
13:41:08:320 -> 2090
13:41:08:330 -> 2072
13:41:08:340 -> 2083
13:41:08:350 -> 2066
13:41:08:360 -> 2088
13:41:08:370 -> 2071
13:41:08:380 -> 2081
13:41:08:390 -> 2076
13:41:08:402 -> 2091
13:41:08:410 -> 2048
13:41:08:422 -> 2098
13:41:08:430 -> 2057
13:41:08:440 -> 2097
13:41:08:451 -> 2069
13:41:08:460 -> 2073
13:41:08:470 -> 2064
13:41:08:480 -> 2097
13:41:08:490 -> 2065
13:41:08:500 -> 2080
13:41:08:510 -> 2041
13:41:08:520 -> 2119
13:41:08:531 -> 2033
13:41:08:541 -> 2148
13:41:08:551 -> 2005
13:41:08:561 -> 2177
13:41:08:571 -> 1986
13:41:08:581 -> 2166
13:41:08:591 -> 2001
13:41:08:601 -> 2163
13:41:08:611 -> 2009
13:41:08:621 -> 2129
13:41:08:631 -> 2024
13:41:08:641 -> 2135
13:41:08:658 -> 2017
13:41:08:663 -> 2114
13:41:08:671 -> 2030
13:41:08:682 -> 2118
13:41:08:692 -> 2064
13:41:08:701 -> 2085
13:41:08:711 -> 2066
13:41:08:721 -> 2102
13:41:08:731 -> 2068
13:41:08:761 -> 2088
13:41:08:765 -> 2080
13:41:08:765 -> 2081
13:41:08:772 -> 2076
13:41:08:782 -> 2092
13:41:08:792 -> 2071
13:41:08:802 -> 2080
13:41:08:812 -> 2057
13:41:08:822 -> 2095
13:41:08:832 -> 2068
13:41:08:842 -> 2090
13:41:08:852 -> 2059
13:41:08:862 -> 2068
13:41:08:872 -> 2069
13:41:08:882 -> 2091
13:41:08:904 -> 2085
13:41:08:905 -> 2082
13:41:08:912 -> 2063
13:41:08:923 -> 2100
13:41:08:933 -> 2060
13:41:08:942 -> 2133
13:41:08:952 -> 2052
13:41:08:962 -> 2124
13:41:08:973 -> 2054
13:41:08:983 -> 2125
13:41:08:993 -> 2046
13:41:09:003 -> 2120
13:41:09:013 -> 2033
13:41:09:023 -> 2136
13:41:09:033 -> 2039
13:41:09:043 -> 2117
13:41:09:053 -> 2046
13:41:09:063 -> 2133
13:41:09:073 -> 2048
13:41:09:083 -> 2124
13:41:09:093 -> 2054
13:41:09:103 -> 2115
13:41:09:124 -> 2055
13:41:09:138 -> 2125
13:41:09:138 -> 2044
13:41:09:189 -> 2117
13:41:09:189 -> 2040
13:41:09:189 -> 2126
13:41:09:189 -> 2047
13:41:09:189 -> 2138
13:41:09:218 -> 2013
13:41:09:218 -> 2145
13:41:09:218 -> 2007
13:41:09:239 -> 2165
13:41:09:239 -> 2006
13:41:09:244 -> 2174
13:41:09:255 -> 1994
13:41:09:289 -> 2160
13:41:09:290 -> 1996
13:41:09:290 -> 2173
13:41:09:294 -> 1976
13:41:09:305 -> 2170
13:41:09:314 -> 1977
13:41:09:324 -> 2206
13:41:09:334 -> 1965
13:41:09:344 -> 2179
13:41:09:354 -> 1968
13:41:09:364 -> 2151
13:41:09:375 -> 1961
13:41:09:384 -> 2175
13:41:09:394 -> 1966
13:41:09:405 -> 2176
13:41:09:414 -> 1993
13:41:09:425 -> 2167
13:41:09:435 -> 1975
13:41:09:452 -> 2174
13:41:09:455 -> 1981
13:41:09:465 -> 2184
13:41:09:475 -> 1951
13:41:09:486 -> 2180
13:41:09:495 -> 1968
13:41:09:505 -> 2189
13:41:09:515 -> 1950
13:41:09:525 -> 2219
13:41:09:535 -> 1938
13:41:09:545 -> 2223
13:41:09:557 -> 1920
13:41:09:568 -> 2223
13:41:09:575 -> 1929
13:41:09:585 -> 2237
13:41:09:595 -> 1938
13:41:09:605 -> 2248
13:41:09:616 -> 1931
13:41:09:626 -> 2230
13:41:09:635 -> 1931
13:41:09:645 -> 2248
13:41:09:655 -> 1932
13:41:09:665 -> 2228
13:41:09:675 -> 1933
13:41:09:686 -> 2250
13:41:09:696 -> 1940
13:41:09:706 -> 2235
13:41:09:716 -> 1924
13:41:09:726 -> 2244
13:41:09:736 -> 1924
13:41:09:746 -> 2227
13:41:09:756 -> 1947
13:41:09:766 -> 2210
13:41:09:776 -> 1943
13:41:09:786 -> 2217
13:41:09:810 -> 1957
13:41:09:811 -> 2226
13:41:09:817 -> 1952
13:41:09:826 -> 2213
13:41:09:836 -> 1942
13:41:09:846 -> 2219
13:41:09:856 -> 1955
13:41:09:866 -> 2210
13:41:09:876 -> 1948
13:41:09:886 -> 2201
13:41:09:897 -> 1970
13:41:09:907 -> 2189
13:41:09:916 -> 1963
13:41:09:926 -> 2206
13:41:09:937 -> 1940
13:41:09:947 -> 2200
13:41:09:957 -> 1966
13:41:09:967 -> 2191
13:41:09:977 -> 1956
13:41:09:987 -> 2192
13:41:09:997 -> 1994
13:41:10:007 -> 2203
13:41:10:021 -> 1966
13:41:10:030 -> 2177
13:41:10:037 -> 1958
13:41:10:047 -> 2169
13:41:10:057 -> 1989
13:41:10:067 -> 2156
13:41:10:077 -> 1993
13:41:10:087 -> 2163
13:41:10:099 -> 1990
13:41:10:107 -> 2143
13:41:10:118 -> 2002
13:41:10:127 -> 2154
13:41:10:137 -> 2000
13:41:10:148 -> 2144
13:41:10:157 -> 2019
13:41:10:168 -> 2127
13:41:10:178 -> 2021
13:41:10:188 -> 2136
13:41:10:198 -> 2012
13:41:10:208 -> 2107
13:41:10:219 -> 2026
13:41:10:230 -> 2117
13:41:10:238 -> 2024
13:41:10:248 -> 2127
13:41:10:258 -> 2016
13:41:10:268 -> 2125
13:41:10:278 -> 2030
13:41:10:288 -> 2123
13:41:10:298 -> 2028
13:41:10:308 -> 2117
13:41:10:337 -> 2023
13:41:10:339 -> 2130
13:41:10:339 -> 2043
13:41:10:348 -> 2109
13:41:10:358 -> 2041
13:41:10:369 -> 2126
13:41:10:380 -> 2029
13:41:10:388 -> 2114
13:41:10:399 -> 2046
13:41:10:409 -> 2118
13:41:10:419 -> 2052
13:41:10:437 -> 2115
13:41:10:439 -> 2034
13:41:10:449 -> 2101
13:41:10:462 -> 2076
13:41:10:469 -> 2086
13:41:10:479 -> 2064
13:41:10:489 -> 2085
13:41:10:499 -> 2058
13:41:10:509 -> 2086
13:41:10:519 -> 2079
13:41:10:529 -> 2096
13:41:10:568 -> 2079
13:41:10:599 -> 2099
13:41:10:599 -> 2086
13:41:10:599 -> 2090
13:41:10:599 -> 2068
13:41:10:599 -> 2079
13:41:10:608 -> 2091
13:41:10:627 -> 2071
13:41:10:627 -> 2085
13:41:10:630 -> 2075
13:41:10:652 -> 2092
13:41:10:657 -> 2086
13:41:10:660 -> 2100
13:41:10:670 -> 2074
13:41:10:680 -> 2096
13:41:10:691 -> 2062
13:41:10:700 -> 2097
13:41:10:710 -> 2055
13:41:10:721 -> 2086
13:41:10:731 -> 2056
13:41:10:740 -> 2096
13:41:10:750 -> 2058
13:41:10:760 -> 2096
13:41:10:770 -> 2048
13:41:10:787 -> 2090
13:41:10:790 -> 2057
13:41:10:801 -> 2093
13:41:10:810 -> 2065
13:41:10:820 -> 2094
13:41:10:830 -> 2059
13:41:10:869 -> 2111
13:41:10:871 -> 2060
13:41:10:871 -> 2119
13:41:10:871 -> 2028
13:41:10:881 -> 2142
13:41:10:893 -> 2001
13:41:10:902 -> 2144
13:41:10:911 -> 1986
13:41:10:921 -> 2174
13:41:10:931 -> 1987
13:41:10:941 -> 2161
13:41:10:951 -> 1994
13:41:10:961 -> 2153
13:41:10:971 -> 2019
13:41:10:981 -> 2141
13:41:10:991 -> 2046
13:41:11:001 -> 2120
13:41:11:021 -> 2029
13:41:11:021 -> 2088
13:41:11:031 -> 2029
13:41:11:042 -> 2095
13:41:11:051 -> 2072
13:41:11:062 -> 2097
13:41:11:071 -> 2070
13:41:11:082 -> 2090
13:41:11:092 -> 2052
13:41:11:104 -> 2078
13:41:11:114 -> 2072
13:41:11:122 -> 2086
13:41:11:132 -> 2072
13:41:11:142 -> 2093
13:41:11:152 -> 2052
13:41:11:165 -> 2089
13:41:11:172 -> 2070
13:41:11:182 -> 2077
13:41:11:192 -> 2071
13:41:11:202 -> 2076
13:41:11:222 -> 2077
13:41:11:224 -> 2071
13:41:11:232 -> 2071
13:41:11:242 -> 2105
13:41:11:252 -> 2066
13:41:11:262 -> 2108
13:41:11:273 -> 2045
13:41:11:282 -> 2120
13:41:11:292 -> 2043
13:41:11:302 -> 2129
13:41:11:313 -> 2042
13:41:11:323 -> 2121
13:41:11:333 -> 2037
13:41:11:343 -> 2136
13:41:11:353 -> 2033
13:41:11:365 -> 2119
13:41:11:401 -> 2056
13:41:11:402 -> 2124
13:41:11:402 -> 2060
13:41:11:403 -> 2118
13:41:11:413 -> 2076
13:41:11:423 -> 2084
13:41:11:433 -> 2052
13:41:11:443 -> 2124
13:41:11:453 -> 2032
13:41:11:463 -> 2127
13:41:11:473 -> 2045
13:41:11:483 -> 2132
13:41:11:504 -> 2026
13:41:11:505 -> 2140
13:41:11:513 -> 2014
13:41:11:524 -> 2154
13:41:11:534 -> 1983
13:41:11:543 -> 2165
13:41:11:554 -> 1998
13:41:11:564 -> 2156
13:41:11:574 -> 1997
13:41:11:584 -> 2170
13:41:11:594 -> 1998
13:41:11:604 -> 2178
13:41:11:615 -> 1970
13:41:11:624 -> 2189
13:41:11:634 -> 1878
13:41:11:644 -> 2187
13:41:11:654 -> 1976
13:41:11:665 -> 2184
13:41:11:674 -> 1979
13:41:11:684 -> 2193
13:41:11:694 -> 1957
13:41:11:704 -> 2199
13:41:11:714 -> 1997
13:41:11:724 -> 2127
13:41:11:734 -> 1970
13:41:11:744 -> 2168
13:41:11:755 -> 1984
13:41:11:764 -> 2187
13:41:11:775 -> 1975
13:41:11:784 -> 2210
13:41:11:795 -> 1925
13:41:11:806 -> 2204
13:41:11:815 -> 2003
13:41:11:825 -> 2220
13:41:11:835 -> 1975
13:41:11:845 -> 2243
13:41:11:855 -> 1892
13:41:11:865 -> 2239
13:41:11:875 -> 1941
13:41:11:885 -> 2213
13:41:11:895 -> 1947
13:41:11:937 -> 2245
13:41:11:939 -> 1926
13:41:11:939 -> 2236
13:41:11:939 -> 1887
13:41:11:945 -> 2263
13:41:11:956 -> 1947
13:41:11:965 -> 2234
13:41:11:975 -> 1921
13:41:11:985 -> 2238
13:41:11:995 -> 1955
13:41:12:005 -> 2227
13:41:12:020 -> 1963
13:41:12:047 -> 2214
13:41:12:047 -> 1952
13:41:12:047 -> 2215
13:41:12:087 -> 1941
13:41:12:087 -> 2222
13:41:12:087 -> 1953
13:41:12:087 -> 2212
13:41:12:112 -> 1949
13:41:12:112 -> 2226
13:41:12:116 -> 1945
13:41:12:130 -> 2205
13:41:12:143 -> 1934
13:41:12:147 -> 2211
13:41:12:156 -> 1949
13:41:12:166 -> 2222
13:41:12:176 -> 1936
13:41:12:186 -> 2164
13:41:12:197 -> 1944
13:41:12:206 -> 2202
13:41:12:216 -> 1962
13:41:12:226 -> 2222
13:41:12:236 -> 1961
13:41:12:247 -> 2182
13:41:12:256 -> 1965
13:41:12:267 -> 2188
13:41:12:277 -> 1966
13:41:12:287 -> 2190
13:41:12:297 -> 1961
13:41:12:307 -> 2135
13:41:12:317 -> 2015
13:41:12:327 -> 2178
13:41:12:337 -> 2008
13:41:12:347 -> 2208
13:41:12:357 -> 1975
13:41:12:367 -> 2182
13:41:12:377 -> 2006
13:41:12:387 -> 2152
13:41:12:397 -> 1991
13:41:12:418 -> 2125
13:41:12:421 -> 1990
13:41:12:427 -> 2135
13:41:12:459 -> 2002
13:41:12:461 -> 2124
13:41:12:461 -> 2019
13:41:12:467 -> 2134
13:41:12:478 -> 1974
13:41:12:487 -> 2110
13:41:12:498 -> 2010
13:41:12:508 -> 2143
13:41:12:518 -> 2026
13:41:12:528 -> 2130
13:41:12:538 -> 2023
13:41:12:548 -> 2147
13:41:12:558 -> 2058
13:41:12:568 -> 2062
13:41:12:578 -> 2048
13:41:12:588 -> 2099
13:41:12:598 -> 2033
13:41:12:608 -> 2115
13:41:12:618 -> 2040
13:41:12:636 -> 2111
13:41:12:638 -> 2044
13:41:12:648 -> 2088
13:41:12:658 -> 2049
13:41:12:668 -> 2104
13:41:12:679 -> 2056
13:41:12:688 -> 2109
13:41:12:698 -> 2056
13:41:12:708 -> 2113
13:41:12:719 -> 2034
13:41:12:729 -> 2105
13:41:12:739 -> 2062
13:41:12:749 -> 2106
13:41:12:759 -> 2067
13:41:12:769 -> 2108
13:41:12:779 -> 2058
13:41:12:789 -> 2107
13:41:12:799 -> 2055
13:41:12:809 -> 2087
13:41:12:819 -> 2071
13:41:12:839 -> 2079
13:41:12:839 -> 2094
13:41:12:850 -> 2067
13:41:12:861 -> 2086
13:41:12:869 -> 2114
13:41:12:879 -> 2077
13:41:12:889 -> 2064
13:41:12:899 -> 2067
13:41:12:909 -> 2104
13:41:12:919 -> 2113
13:41:12:929 -> 2092
13:41:12:939 -> 2074
13:41:12:950 -> 2065
13:41:12:984 -> 2100
13:41:12:985 -> 2082
13:41:12:985 -> 2080
13:41:12:990 -> 2086
13:41:13:000 -> 2092
13:41:13:010 -> 2059
13:41:13:020 -> 2106
13:41:13:030 -> 2065
13:41:13:040 -> 2090
13:41:13:050 -> 2061
13:41:13:060 -> 2114
13:41:13:070 -> 2069
13:41:13:081 -> 2091
13:41:13:090 -> 2084
13:41:13:100 -> 2092
13:41:13:110 -> 2052
13:41:13:121 -> 2100
13:41:13:137 -> 2051
13:41:13:140 -> 2117
13:41:13:150 -> 2053
13:41:13:160 -> 2126
13:41:13:170 -> 2004
13:41:13:181 -> 2155
13:41:13:191 -> 2004
13:41:13:201 -> 2165
13:41:13:211 -> 2018
13:41:13:221 -> 2154
13:41:13:231 -> 2008
13:41:13:241 -> 2140
13:41:13:251 -> 2003
13:41:13:261 -> 2152
13:41:13:271 -> 2021
13:41:13:281 -> 2117
13:41:13:291 -> 2051
13:41:13:301 -> 2112
13:41:13:311 -> 2044
13:41:13:321 -> 2098
13:41:13:331 -> 2064
13:41:13:342 -> 2066
13:41:13:351 -> 2097
13:41:13:362 -> 2058
13:41:13:372 -> 2061
13:41:13:381 -> 2091
13:41:13:391 -> 2061
13:41:13:401 -> 2086
13:41:13:412 -> 2087
13:41:13:422 -> 2092
13:41:13:432 -> 2058
13:41:13:442 -> 2053
13:41:13:452 -> 2063
13:41:13:462 -> 2070
13:41:13:472 -> 2104
13:41:13:515 -> 2075
13:41:13:516 -> 2064
13:41:13:516 -> 2082
13:41:13:516 -> 2089
13:41:13:522 -> 2068
13:41:13:532 -> 2075
13:41:13:542 -> 2115
13:41:13:552 -> 2033
13:41:13:562 -> 2110
13:41:13:573 -> 2037
13:41:13:582 -> 2122
13:41:13:592 -> 2025
13:41:13:602 -> 2140
13:41:13:613 -> 2045
13:41:13:622 -> 2117
13:41:13:632 -> 2022
13:41:13:642 -> 2110
13:41:13:653 -> 2047
13:41:13:663 -> 2109
13:41:13:673 -> 2039
13:41:13:683 -> 2110
13:41:13:704 -> 2037
13:41:13:706 -> 2106
13:41:13:713 -> 2053
13:41:13:723 -> 2072
13:41:13:733 -> 2040
13:41:13:745 -> 2114
13:41:13:753 -> 2052
13:41:13:763 -> 2165
13:41:13:773 -> 1988
13:41:13:783 -> 2155
13:41:13:793 -> 2009
13:41:13:804 -> 2142
13:41:13:838 -> 2018
13:41:13:844 -> 2171
13:41:13:844 -> 1972
13:41:13:844 -> 2168
13:41:13:882 -> 2006
13:41:13:882 -> 2151
13:41:13:882 -> 2002
13:41:13:899 -> 2179
13:41:13:899 -> 1982
13:41:13:904 -> 2201
13:41:13:928 -> 1961
13:41:13:934 -> 2195
13:41:13:934 -> 1981
13:41:13:944 -> 2179
13:41:13:954 -> 1980
13:41:13:964 -> 2190
13:41:13:974 -> 1970
13:41:13:984 -> 2180
13:41:13:997 -> 1985
13:41:14:004 -> 2188
13:41:14:067 -> 1974
13:41:14:077 -> 2198
13:41:14:077 -> 1982
13:41:14:077 -> 2157
13:41:14:077 -> 1992
13:41:14:077 -> 2200
13:41:14:077 -> 1970
13:41:14:084 -> 2219
13:41:14:101 -> 1934
13:41:14:109 -> 2224
13:41:14:114 -> 1895
13:41:14:125 -> 2243
13:41:14:136 -> 1937
13:41:14:145 -> 2208
13:41:14:155 -> 1939
13:41:14:167 -> 2243
13:41:14:175 -> 1927
13:41:14:186 -> 2230
13:41:14:195 -> 1942
13:41:14:205 -> 2266
13:41:14:215 -> 1921
13:41:14:226 -> 2248
13:41:14:236 -> 1909
13:41:14:245 -> 2227
13:41:14:255 -> 1919
13:41:14:265 -> 2248
13:41:14:275 -> 1945
13:41:14:285 -> 2230
13:41:14:295 -> 1924
13:41:14:305 -> 2237
13:41:14:315 -> 1936
13:41:14:326 -> 2176
13:41:14:335 -> 1948
13:41:14:346 -> 2235
13:41:14:356 -> 1939
13:41:14:366 -> 2213
13:41:14:381 -> 1973
13:41:14:386 -> 2182
13:41:14:396 -> 1950
13:41:14:406 -> 2208
13:41:14:416 -> 1968
13:41:14:426 -> 2198
13:41:14:436 -> 1944
13:41:14:448 -> 2202
13:41:14:458 -> 1947
13:41:14:466 -> 2126
13:41:14:477 -> 1921
13:41:14:486 -> 2179
13:41:14:496 -> 1998
13:41:14:506 -> 2219
13:41:14:516 -> 1945
13:41:14:526 -> 2172
13:41:14:536 -> 2001
13:41:14:546 -> 2134
13:41:14:556 -> 1994
13:41:14:593 -> 2197
13:41:14:593 -> 1944
13:41:14:593 -> 2209
13:41:14:597 -> 1991
13:41:14:607 -> 2152
13:41:14:620 -> 1985
13:41:14:627 -> 2166
13:41:14:638 -> 1979
13:41:14:647 -> 2177
13:41:14:657 -> 2007
13:41:14:667 -> 2159
13:41:14:678 -> 2023
13:41:14:687 -> 2147
13:41:14:697 -> 2029
13:41:14:707 -> 2170
13:41:14:717 -> 2003
13:41:14:727 -> 2152
13:41:14:737 -> 2006
13:41:14:750 -> 2113
13:41:14:757 -> 2032
13:41:14:767 -> 2139
13:41:14:778 -> 2038
13:41:14:787 -> 2096
13:41:14:798 -> 2061
13:41:14:808 -> 2080
13:41:14:818 -> 2039
13:41:14:828 -> 2114
13:41:14:838 -> 2056
13:41:14:848 -> 2106
13:41:14:858 -> 2068
13:41:14:868 -> 2109
13:41:14:878 -> 2025
13:41:14:888 -> 2121
13:41:14:898 -> 2032
13:41:14:908 -> 2102
13:41:14:918 -> 2071
13:41:14:928 -> 2122
13:41:14:938 -> 2030
13:41:14:948 -> 2109
13:41:14:958 -> 2074
13:41:14:968 -> 2112
13:41:14:979 -> 2060
13:41:14:988 -> 2133
13:41:14:998 -> 2049
13:41:15:009 -> 2104
13:41:15:018 -> 2048
13:41:15:029 -> 2095
13:41:15:038 -> 2059
13:41:15:049 -> 2117
13:41:15:059 -> 2073
13:41:15:073 -> 2100
13:41:15:080 -> 2063
13:41:15:089 -> 2090
13:41:15:138 -> 2069
13:41:15:140 -> 2096
13:41:15:140 -> 2081
13:41:15:140 -> 2098
13:41:15:140 -> 2039
13:41:15:150 -> 2040
13:41:15:159 -> 2085
13:41:15:169 -> 2069
13:41:15:180 -> 2069
13:41:15:189 -> 2069
13:41:15:199 -> 2097
13:41:15:209 -> 2079
13:41:15:219 -> 2097
13:41:15:230 -> 2088
13:41:15:239 -> 2090
13:41:15:249 -> 2081
13:41:15:259 -> 2093
13:41:15:270 -> 2057
13:41:15:280 -> 2077
13:41:15:290 -> 2052
13:41:15:300 -> 2097
13:41:15:311 -> 2056
13:41:15:321 -> 2123
13:41:15:336 -> 2052
13:41:15:341 -> 2129
13:41:15:363 -> 2046
13:41:15:363 -> 2132
13:41:15:400 -> 2028
13:41:15:400 -> 2126
13:41:15:400 -> 1999
13:41:15:423 -> 2154
13:41:15:423 -> 1985
13:41:15:423 -> 2158
13:41:15:431 -> 1997
13:41:15:453 -> 2178
13:41:15:465 -> 2014
13:41:15:465 -> 2131
13:41:15:470 -> 2014
13:41:15:480 -> 2121
13:41:15:492 -> 2033
13:41:15:501 -> 2141
13:41:15:511 -> 2053
13:41:15:521 -> 2095
13:41:15:531 -> 2042
13:41:15:541 -> 2050
13:41:15:551 -> 2061
13:41:15:561 -> 2098
13:41:15:571 -> 2070
13:41:15:581 -> 2101
13:41:15:591 -> 2073
13:41:15:603 -> 2087
13:41:15:611 -> 2108
13:41:15:621 -> 2058
13:41:15:631 -> 2075
13:41:15:670 -> 2102
13:41:15:671 -> 2050
13:41:15:671 -> 2095
13:41:15:671 -> 2068
13:41:15:681 -> 2110
13:41:15:691 -> 2095
13:41:15:701 -> 2085
13:41:15:711 -> 2101
13:41:15:721 -> 2097
13:41:15:737 -> 2077
13:41:15:741 -> 2098
13:41:15:752 -> 2054
13:41:15:763 -> 2111
13:41:15:772 -> 2050
13:41:15:782 -> 2117
13:41:15:792 -> 2022
13:41:15:802 -> 2146
13:41:15:813 -> 2034
13:41:15:822 -> 2154
13:41:15:832 -> 2038
13:41:15:842 -> 2118
13:41:15:852 -> 2027
13:41:15:862 -> 2121
13:41:15:872 -> 2056
13:41:15:882 -> 2111
13:41:15:892 -> 2046
13:41:15:903 -> 2084
13:41:15:912 -> 2040
13:41:15:922 -> 2088
13:41:15:932 -> 2057
13:41:15:942 -> 2112
13:41:15:952 -> 2034
13:41:15:975 -> 2118
13:41:15:977 -> 2007
13:41:15:983 -> 2140
13:41:15:993 -> 2017
13:41:16:003 -> 2144
13:41:16:013 -> 2006
13:41:16:023 -> 2144
13:41:16:033 -> 2001
13:41:16:043 -> 2147
13:41:16:053 -> 1978
13:41:16:063 -> 2165
13:41:16:073 -> 2006
13:41:16:083 -> 2161
13:41:16:094 -> 1985
13:41:16:103 -> 2176
13:41:16:113 -> 1961
13:41:16:123 -> 2184
13:41:16:133 -> 1975
13:41:16:143 -> 2207
13:41:16:153 -> 1984
13:41:16:165 -> 2183
13:41:16:212 -> 1971
13:41:16:213 -> 2181
13:41:16:213 -> 1983
13:41:16:213 -> 2187
13:41:16:214 -> 1975
13:41:16:224 -> 2188
13:41:16:234 -> 1973
13:41:16:244 -> 2195
13:41:16:254 -> 1974
13:41:16:264 -> 2220
13:41:16:274 -> 1949
13:41:16:284 -> 2217
13:41:16:294 -> 1959
13:41:16:304 -> 2236
13:41:16:314 -> 1949
13:41:16:324 -> 2226
13:41:16:334 -> 1950
13:41:16:344 -> 2218
13:41:16:354 -> 1939
13:41:16:364 -> 2240
13:41:16:374 -> 1933
13:41:16:385 -> 2225
13:41:16:394 -> 1936
13:41:16:404 -> 2248
13:41:16:414 -> 1924
13:41:16:424 -> 2243
13:41:16:435 -> 1925
13:41:16:445 -> 2240
13:41:16:455 -> 1921
13:41:16:468 -> 2214
13:41:16:475 -> 1966
13:41:16:485 -> 2204
13:41:16:495 -> 1934
13:41:16:505 -> 2234
13:41:16:515 -> 1928
13:41:16:525 -> 2209
13:41:16:535 -> 1927
13:41:16:546 -> 2194
13:41:16:555 -> 1945
13:41:16:565 -> 2218
13:41:16:575 -> 1950
13:41:16:585 -> 2213
13:41:16:597 -> 1966
13:41:16:605 -> 2161
13:41:16:615 -> 1958
13:41:16:625 -> 2190
13:41:16:635 -> 1937
13:41:16:652 -> 2202
13:41:16:655 -> 1932
13:41:16:665 -> 2164
13:41:16:676 -> 1927
13:41:16:686 -> 2170
13:41:16:696 -> 1986
13:41:16:706 -> 2169
13:41:16:741 -> 1971
13:41:16:742 -> 2167
13:41:16:742 -> 1976
13:41:16:746 -> 2179
13:41:16:757 -> 1966
13:41:16:766 -> 2182
13:41:16:776 -> 1963
13:41:16:786 -> 2175
13:41:16:796 -> 1984
13:41:16:806 -> 2161
13:41:16:816 -> 1990
13:41:16:827 -> 2152
13:41:16:836 -> 2003
13:41:16:847 -> 2150
13:41:16:856 -> 2020
13:41:16:866 -> 2144
13:41:16:876 -> 2028
13:41:16:886 -> 2138
13:41:16:896 -> 2011
13:41:16:907 -> 2133
13:41:16:917 -> 2038
13:41:16:931 -> 2140
13:41:16:937 -> 2006
13:41:16:947 -> 2127
13:41:16:957 -> 2024
13:41:16:967 -> 2126
13:41:16:982 -> 2056
13:41:17:010 -> 2115
13:41:17:010 -> 2043
13:41:17:010 -> 2125
13:41:17:021 -> 2049
13:41:17:037 -> 2117
13:41:17:049 -> 2029
13:41:17:049 -> 2134
13:41:17:059 -> 2036
13:41:17:067 -> 2121
13:41:17:081 -> 2057
13:41:17:102 -> 2100
13:41:17:102 -> 2041
13:41:17:107 -> 2115
13:41:17:118 -> 2077
13:41:17:128 -> 2101
13:41:17:138 -> 2075
13:41:17:148 -> 2120
13:41:17:158 -> 2073
13:41:17:168 -> 2086
13:41:17:178 -> 2056
13:41:17:188 -> 2074
13:41:17:198 -> 2075
13:41:17:211 -> 2100
13:41:17:220 -> 2069
13:41:17:228 -> 2099
13:41:17:238 -> 2074
13:41:17:276 -> 2076
13:41:17:279 -> 2065
13:41:17:279 -> 2075
13:41:17:279 -> 2089
13:41:17:289 -> 2110
13:41:17:298 -> 2090
13:41:17:308 -> 2065
13:41:17:318 -> 2088
13:41:17:330 -> 2070
13:41:17:338 -> 2076
13:41:17:351 -> 2049
13:41:17:359 -> 2093
13:41:17:369 -> 2069
13:41:17:379 -> 2082
13:41:17:389 -> 2043
13:41:17:399 -> 2100
13:41:17:409 -> 2050
13:41:17:419 -> 2090
13:41:17:429 -> 2042
13:41:17:439 -> 2081
13:41:17:449 -> 2075
13:41:17:469 -> 2090
13:41:17:470 -> 2075
13:41:17:479 -> 2109
13:41:17:489 -> 2068
13:41:17:500 -> 2094
13:41:17:510 -> 2041
13:41:17:522 -> 2081
13:41:17:530 -> 2041
13:41:17:539 -> 2106
13:41:17:549 -> 2031
13:41:17:560 -> 2154
13:41:17:569 -> 1991
13:41:17:580 -> 2151
13:41:17:590 -> 2011
13:41:17:600 -> 2176
13:41:17:610 -> 2009
13:41:17:620 -> 2148
13:41:17:630 -> 1984
13:41:17:640 -> 2152
13:41:17:651 -> 2020
13:41:17:660 -> 2143
13:41:17:670 -> 2056
13:41:17:680 -> 2102
13:41:17:690 -> 2059
13:41:17:705 -> 2119
13:41:17:711 -> 2070
13:41:17:720 -> 2099
13:41:17:731 -> 2060
13:41:17:740 -> 2096
13:41:17:750 -> 2082
13:41:17:760 -> 2103
13:41:17:770 -> 2100
13:41:17:817 -> 2082
13:41:17:819 -> 2083
13:41:17:819 -> 2111
13:41:17:819 -> 2078
13:41:17:821 -> 2082
13:41:17:831 -> 2068
13:41:17:841 -> 2099
13:41:17:851 -> 2077
13:41:17:861 -> 2086
13:41:17:871 -> 2056
13:41:17:881 -> 2082
13:41:17:892 -> 2092
13:41:17:901 -> 2085
13:41:17:911 -> 2062
13:41:17:921 -> 2114
13:41:17:936 -> 2049
13:41:17:941 -> 2137
13:41:17:952 -> 2050
13:41:17:961 -> 2137
13:41:17:971 -> 2049
13:41:17:981 -> 2131
13:41:17:991 -> 2031
13:41:18:001 -> 2103
13:41:18:012 -> 2013
13:41:18:022 -> 2107
13:41:18:032 -> 2063
13:41:18:041 -> 2104
13:41:18:052 -> 2060
13:41:18:062 -> 2126
13:41:18:072 -> 2044
13:41:18:082 -> 2106
13:41:18:093 -> 2052
13:41:18:102 -> 2105
13:41:18:112 -> 2033
13:41:18:122 -> 2127
13:41:18:132 -> 2021
13:41:18:142 -> 2144
13:41:18:152 -> 2016
13:41:18:172 -> 2151
13:41:18:174 -> 2023
13:41:18:184 -> 2141
13:41:18:192 -> 2000
13:41:18:202 -> 2150
13:41:18:215 -> 2023
13:41:18:222 -> 2153
13:41:18:233 -> 2003
13:41:18:243 -> 2184
13:41:18:253 -> 1965
13:41:18:263 -> 2173
13:41:18:273 -> 1955
13:41:18:283 -> 2189
13:41:18:293 -> 1966
13:41:18:303 -> 2192
13:41:18:313 -> 1962
13:41:18:353 -> 2181
13:41:18:354 -> 1980
13:41:18:354 -> 2179
13:41:18:354 -> 1989
13:41:18:363 -> 2146
13:41:18:377 -> 1965
13:41:18:383 -> 2183
13:41:18:393 -> 1967
13:41:18:403 -> 2183
13:41:18:413 -> 1994
13:41:18:423 -> 2204
13:41:18:433 -> 1950
13:41:18:444 -> 2216
13:41:18:453 -> 1956
13:41:18:464 -> 2196
13:41:18:474 -> 1943
13:41:18:484 -> 2224
13:41:18:493 -> 1949
13:41:18:504 -> 2243
13:41:18:514 -> 1944
13:41:18:524 -> 2249
13:41:18:534 -> 1925
13:41:18:553 -> 2267
13:41:18:556 -> 1922
13:41:18:564 -> 2237
13:41:18:608 -> 1932
13:41:18:632 -> 2257
13:41:18:632 -> 1919
13:41:18:632 -> 2245
13:41:18:632 -> 1936
13:41:18:632 -> 2235
13:41:18:657 -> 1935
13:41:18:657 -> 2272
13:41:18:657 -> 1937
13:41:18:664 -> 2245
13:41:18:691 -> 1941
13:41:18:691 -> 2227
13:41:18:701 -> 1937
13:41:18:714 -> 2204
13:41:18:717 -> 1940
13:41:18:725 -> 2219
13:41:18:735 -> 1932
13:41:18:746 -> 2222
13:41:18:755 -> 1949
13:41:18:768 -> 2205
13:41:18:779 -> 1932
13:41:18:789 -> 2205
13:41:18:796 -> 1940
13:41:18:806 -> 2204
13:41:18:815 -> 1929
13:41:18:825 -> 2182
13:41:18:835 -> 1936
13:41:18:845 -> 2199
13:41:18:881 -> 1948
13:41:18:886 -> 2170
13:41:18:886 -> 1957
13:41:18:886 -> 2166
13:41:18:895 -> 1956
13:41:18:905 -> 2174
13:41:18:927 -> 1938
13:41:18:935 -> 2177
13:41:18:937 -> 1988
13:41:18:946 -> 2178
13:41:18:956 -> 1992
13:41:18:966 -> 2160
13:41:18:976 -> 1980
13:41:18:986 -> 2155
13:41:18:996 -> 1980
13:41:19:009 -> 2135
13:41:19:018 -> 2023
13:41:19:026 -> 2160
13:41:19:036 -> 2010
13:41:19:047 -> 2145
13:41:19:056 -> 2010
13:41:19:066 -> 2132
13:41:19:076 -> 2024
13:41:19:086 -> 2153
13:41:19:098 -> 2024
13:41:19:106 -> 2124
13:41:19:116 -> 2018
13:41:19:127 -> 2102
13:41:19:136 -> 2033
13:41:19:146 -> 2135
13:41:19:157 -> 2065
13:41:19:174 -> 2131
13:41:19:176 -> 2029
13:41:19:187 -> 2107
13:41:19:197 -> 2034
13:41:19:207 -> 2109
13:41:19:217 -> 2087
13:41:19:227 -> 2119
13:41:19:238 -> 2042
13:41:19:247 -> 2118
13:41:19:257 -> 2068
13:41:19:267 -> 2096
13:41:19:277 -> 2058
13:41:19:287 -> 2108
13:41:19:297 -> 2044
13:41:19:307 -> 2115
