13:30:41:262 -> 2091
13:30:41:274 -> 2093
13:30:41:282 -> 2052
13:30:41:293 -> 2108
13:30:41:332 -> 2067
13:30:41:333 -> 2082
13:30:41:333 -> 2038
13:30:41:333 -> 2090
13:30:41:344 -> 2076
13:30:41:353 -> 2087
13:30:41:363 -> 2060
13:30:41:373 -> 2080
13:30:41:383 -> 2076
13:30:41:393 -> 2084
13:30:41:403 -> 2064
13:30:41:413 -> 2098
13:30:41:423 -> 2058
13:30:41:433 -> 2077
13:30:41:443 -> 2071
13:30:41:454 -> 2070
13:30:41:463 -> 2072
13:30:41:473 -> 2068
13:30:41:483 -> 2073
13:30:41:493 -> 2066
13:30:41:505 -> 2066
13:30:41:520 -> 2067
13:30:41:523 -> 2089
13:30:41:535 -> 2057
13:30:41:544 -> 2112
13:30:41:554 -> 2030
13:30:41:564 -> 2129
13:30:41:574 -> 2016
13:30:41:584 -> 2134
13:30:41:594 -> 2009
13:30:41:604 -> 2124
13:30:41:614 -> 2020
13:30:41:626 -> 2128
13:30:41:634 -> 2032
13:30:41:644 -> 2111
13:30:41:654 -> 2063
13:30:41:664 -> 2094
13:30:41:674 -> 2081
13:30:41:684 -> 2091
13:30:41:694 -> 2111
13:30:41:704 -> 2081
13:30:41:716 -> 2116
13:30:41:724 -> 2069
13:30:41:734 -> 2120
13:30:41:744 -> 2048
13:30:41:754 -> 2125
13:30:41:764 -> 2075
13:30:41:775 -> 2128
13:30:41:785 -> 2067
13:30:41:795 -> 2123
13:30:41:805 -> 2066
13:30:41:815 -> 2119
13:30:41:825 -> 2071
13:30:41:865 -> 2146
13:30:41:867 -> 2054
13:30:41:867 -> 2143
13:30:41:867 -> 2070
13:30:41:877 -> 2133
13:30:41:885 -> 2049
13:30:41:895 -> 2126
13:30:41:905 -> 2066
13:30:41:915 -> 2126
13:30:41:925 -> 2063
13:30:41:938 -> 2105
13:30:41:946 -> 2079
13:30:41:956 -> 2082
13:30:41:966 -> 2082
13:30:41:976 -> 2055
13:30:41:988 -> 2072
13:30:42:002 -> 2079
13:30:42:006 -> 2064
13:30:42:016 -> 2068
13:30:42:027 -> 2049
13:30:42:055 -> 2076
13:30:42:055 -> 2044
13:30:42:066 -> 2080
13:30:42:066 -> 2037
13:30:42:093 -> 2069
13:30:42:093 -> 2032
13:30:42:105 -> 2051
13:30:42:107 -> 2038
13:30:42:116 -> 2064
13:30:42:135 -> 2065
13:30:42:136 -> 2052
13:30:42:146 -> 2094
13:30:42:159 -> 1955
13:30:42:166 -> 2075
13:30:42:176 -> 2060
13:30:42:187 -> 2111
13:30:42:196 -> 2018
13:30:42:207 -> 2106
13:30:42:218 -> 2032
13:30:42:227 -> 2146
13:30:42:237 -> 2049
13:30:42:247 -> 2081
13:30:42:258 -> 2060
13:30:42:267 -> 2073
13:30:42:277 -> 2069
13:30:42:303 -> 2110
13:30:42:306 -> 2029
13:30:42:308 -> 2129
13:30:42:317 -> 1997
13:30:42:327 -> 2148
13:30:42:337 -> 1954
13:30:42:347 -> 2198
13:30:42:358 -> 2019
13:30:42:391 -> 2152
13:30:42:393 -> 2075
13:30:42:393 -> 2123
13:30:42:398 -> 2070
13:30:42:408 -> 2405
13:30:42:418 -> 2133
13:30:42:430 -> 1642
13:30:42:446 -> 1913
13:30:42:448 -> 2491
13:30:42:459 -> 2161
13:30:42:469 -> 1587
13:30:42:478 -> 2080
13:30:42:489 -> 2332
13:30:42:501 -> 2119
13:30:42:518 -> 2342
13:30:42:524 -> 2253
13:30:42:528 -> 2075
13:30:42:538 -> 2006
13:30:42:548 -> 1995
13:30:42:558 -> 1899
13:30:42:568 -> 2778
13:30:42:578 -> 1881
13:30:42:588 -> 2227
13:30:42:599 -> 2074
13:30:42:608 -> 2336
13:30:42:620 -> 2039
13:30:42:628 -> 2559
13:30:42:639 -> 448
13:30:42:656 -> 2673
13:30:42:659 -> 2063
13:30:42:669 -> 2410
13:30:42:696 -> 2149
13:30:42:699 -> 2048
13:30:42:699 -> 899
13:30:42:709 -> 2879
13:30:42:719 -> 1872
13:30:42:729 -> 2471
13:30:42:739 -> 2093
13:30:42:749 -> 2315
13:30:42:759 -> 1755
13:30:42:769 -> 2355
13:30:42:779 -> 2045
13:30:42:789 -> 1911
13:30:42:799 -> 1977
13:30:42:810 -> 2241
13:30:42:819 -> 2078
13:30:42:829 -> 934
13:30:42:840 -> 2130
13:30:42:850 -> 1942
13:30:42:860 -> 1955
13:30:42:870 -> 1509
13:30:42:883 -> 1901
13:30:42:916 -> 2435
13:30:42:919 -> 2195
13:30:42:919 -> 2314
13:30:42:920 -> 1951
13:30:42:930 -> 2161
13:30:42:940 -> 2128
13:30:42:950 -> 1932
13:30:42:960 -> 2251
13:30:42:970 -> 2426
13:30:42:980 -> 2068
13:30:42:990 -> 2229
13:30:43:000 -> 1610
13:30:43:010 -> 2145
13:30:43:020 -> 2105
13:30:43:037 -> 2265
13:30:43:045 -> 1935
13:30:43:050 -> 2367
13:30:43:060 -> 1608
13:30:43:070 -> 2374
13:30:43:081 -> 1652
13:30:43:091 -> 1967
13:30:43:101 -> 2207
13:30:43:113 -> 2022
13:30:43:122 -> 2025
13:30:43:131 -> 2192
13:30:43:141 -> 2005
13:30:43:151 -> 2056
13:30:43:161 -> 2103
13:30:43:171 -> 2214
13:30:43:181 -> 2384
13:30:43:191 -> 2327
13:30:43:201 -> 2176
13:30:43:211 -> 2207
13:30:43:221 -> 2113
13:30:43:231 -> 2171
13:30:43:242 -> 1514
13:30:43:251 -> 2239
13:30:43:262 -> 2014
13:30:43:271 -> 1933
13:30:43:282 -> 2186
13:30:43:300 -> 1558
13:30:43:304 -> 1997
13:30:43:312 -> 2639
13:30:43:323 -> 2283
13:30:43:332 -> 1811
13:30:43:342 -> 2071
13:30:43:352 -> 2246
13:30:43:362 -> 2220
13:30:43:372 -> 2007
13:30:43:382 -> 2294
13:30:43:392 -> 2064
13:30:43:402 -> 2140
13:30:43:412 -> 2089
13:30:43:447 -> 2086
13:30:43:450 -> 2165
13:30:43:450 -> 2206
13:30:43:452 -> 2024
13:30:43:462 -> 2446
13:30:43:472 -> 2122
13:30:43:482 -> 1576
13:30:43:493 -> 2237
13:30:43:502 -> 1886
13:30:43:513 -> 2135
13:30:43:522 -> 2009
13:30:43:552 -> 1976
13:30:43:556 -> 1680
13:30:43:556 -> 2036
13:30:43:575 -> 1758
13:30:43:575 -> 1999
13:30:43:595 -> 2287
13:30:43:595 -> 2016
13:30:43:604 -> 1116
13:30:43:613 -> 2111
13:30:43:624 -> 2097
13:30:43:633 -> 2060
13:30:43:643 -> 2035
13:30:43:653 -> 2212
13:30:43:663 -> 1962
13:30:43:673 -> 2138
13:30:43:683 -> 2020
13:30:43:695 -> 2010
13:30:43:703 -> 2233
13:30:43:713 -> 1554
13:30:43:723 -> 1682
13:30:43:733 -> 1690
13:30:43:743 -> 2121
13:30:43:753 -> 1581
13:30:43:767 -> 2739
13:30:43:774 -> 2146
13:30:43:784 -> 2052
13:30:43:795 -> 2039
13:30:43:804 -> 2309
13:30:43:814 -> 1824
13:30:43:826 -> 2303
13:30:43:834 -> 2071
13:30:43:844 -> 1971
13:30:43:854 -> 2020
13:30:43:883 -> 2110
13:30:43:884 -> 2069
13:30:43:884 -> 2262
13:30:43:894 -> 2218
13:30:43:904 -> 1420
13:30:43:914 -> 2358
13:30:43:926 -> 2253
13:30:43:934 -> 2220
13:30:43:945 -> 2251
13:30:43:974 -> 2010
13:30:43:976 -> 2079
13:30:43:976 -> 2117
13:30:43:985 -> 2036
13:30:43:995 -> 2140
13:30:44:005 -> 2113
13:30:44:015 -> 2213
13:30:44:029 -> 2106
13:30:44:035 -> 2217
13:30:44:045 -> 2100
13:30:44:055 -> 2084
13:30:44:065 -> 2023
13:30:44:075 -> 2120
13:30:44:085 -> 2088
13:30:44:095 -> 1874
13:30:44:106 -> 2022
13:30:44:116 -> 2158
13:30:44:125 -> 1789
13:30:44:137 -> 1991
13:30:44:146 -> 2138
13:30:44:155 -> 2131
13:30:44:165 -> 2001
13:30:44:175 -> 2121
13:30:44:198 -> 1989
13:30:44:199 -> 2152
13:30:44:206 -> 2166
13:30:44:216 -> 2034
13:30:44:226 -> 2132
13:30:44:236 -> 2053
13:30:44:246 -> 2046
13:30:44:256 -> 2040
13:30:44:266 -> 2083
13:30:44:276 -> 2055
13:30:44:286 -> 2062
13:30:44:296 -> 2041
13:30:44:306 -> 2104
13:30:44:316 -> 2023
13:30:44:326 -> 2112
13:30:44:336 -> 2023
13:30:44:346 -> 2104
13:30:44:357 -> 1998
13:30:44:366 -> 2119
13:30:44:376 -> 1980
13:30:44:386 -> 2119
13:30:44:398 -> 1992
13:30:44:406 -> 2130
13:30:44:417 -> 1992
13:30:44:426 -> 2130
13:30:44:437 -> 1972
13:30:44:447 -> 2093
13:30:44:457 -> 2010
13:30:44:467 -> 2139
13:30:44:502 -> 1991
13:30:44:503 -> 2118
13:30:44:503 -> 2004
13:30:44:507 -> 2136
13:30:44:517 -> 2008
13:30:44:527 -> 2170
13:30:44:537 -> 1977
13:30:44:548 -> 2168
13:30:44:557 -> 1982
13:30:44:567 -> 2164
13:30:44:578 -> 1976
13:30:44:587 -> 2180
13:30:44:598 -> 1986
13:30:44:608 -> 2229
13:30:44:618 -> 1968
13:30:44:627 -> 2222
13:30:44:637 -> 1972
13:30:44:647 -> 2240
13:30:44:658 -> 1964
13:30:44:668 -> 2233
13:30:44:678 -> 1982
13:30:44:688 -> 2214
13:30:44:698 -> 1966
13:30:44:708 -> 2245
13:30:44:718 -> 1957
13:30:44:728 -> 2244
13:30:44:738 -> 1952
13:30:44:748 -> 2233
13:30:44:758 -> 1961
13:30:44:768 -> 2236
13:30:44:778 -> 1940
13:30:44:788 -> 2228
13:30:44:798 -> 1960
13:30:44:815 -> 2229
13:30:44:818 -> 1951
13:30:44:828 -> 2219
13:30:44:838 -> 1960
13:30:44:848 -> 2210
13:30:44:858 -> 1948
13:30:44:868 -> 2201
13:30:44:879 -> 1946
13:30:44:889 -> 2203
13:30:44:899 -> 1961
13:30:44:909 -> 2195
13:30:44:919 -> 1970
13:30:44:929 -> 2195
13:30:44:944 -> 1948
13:30:44:952 -> 2176
13:30:44:959 -> 1951
13:30:44:969 -> 2172
13:30:44:979 -> 1963
13:30:45:040 -> 2174
13:30:45:054 -> 1988
13:30:45:054 -> 2170
13:30:45:054 -> 1971
13:30:45:054 -> 2179
13:30:45:054 -> 2007
13:30:45:054 -> 2169
13:30:45:063 -> 1987
13:30:45:070 -> 2166
13:30:45:097 -> 1994
13:30:45:097 -> 2174
13:30:45:100 -> 2001
13:30:45:110 -> 2156
13:30:45:120 -> 2002
13:30:45:130 -> 2156
13:30:45:140 -> 2021
13:30:45:150 -> 2141
13:30:45:175 -> 2012
13:30:45:177 -> 2137
13:30:45:182 -> 2018
13:30:45:195 -> 2141
13:30:45:201 -> 2022
13:30:45:210 -> 2122
13:30:45:220 -> 2030
13:30:45:230 -> 2125
13:30:45:241 -> 2026
13:30:45:250 -> 2129
13:30:45:260 -> 2029
13:30:45:272 -> 2135
13:30:45:280 -> 2042
13:30:45:291 -> 2122
13:30:45:301 -> 2039
13:30:45:311 -> 2154
13:30:45:321 -> 2046
13:30:45:331 -> 2136
13:30:45:341 -> 2050
13:30:45:351 -> 2142
13:30:45:361 -> 2058
13:30:45:371 -> 2127
13:30:45:381 -> 2061
13:30:45:391 -> 2150
13:30:45:401 -> 2075
13:30:45:411 -> 2137
13:30:45:421 -> 2065
13:30:45:442 -> 2129
13:30:45:443 -> 2083
13:30:45:452 -> 2117
13:30:45:461 -> 2072
13:30:45:477 -> 2118
13:30:45:481 -> 2080
13:30:45:491 -> 2103
13:30:45:501 -> 2089
13:30:45:511 -> 2103
13:30:45:522 -> 2073
13:30:45:532 -> 2098
13:30:45:570 -> 2087
13:30:45:576 -> 2097
13:30:45:576 -> 2061
13:30:45:578 -> 2076
13:30:45:582 -> 2060
13:30:45:592 -> 2089
13:30:45:602 -> 2072
13:30:45:612 -> 2058
13:30:45:622 -> 2070
13:30:45:632 -> 2079
13:30:45:642 -> 2076
13:30:45:658 -> 2073
13:30:45:662 -> 2060
13:30:45:672 -> 2070
13:30:45:682 -> 2052
13:30:45:692 -> 2057
13:30:45:702 -> 2054
13:30:45:712 -> 2052
13:30:45:722 -> 2051
13:30:45:732 -> 2051
13:30:45:742 -> 2034
13:30:45:753 -> 2033
13:30:45:764 -> 2083
13:30:45:773 -> 2017
13:30:45:783 -> 2098
13:30:45:793 -> 1992
13:30:45:803 -> 2089
13:30:45:813 -> 1981
13:30:45:823 -> 2099
13:30:45:833 -> 1998
13:30:45:843 -> 2097
13:30:45:853 -> 1999
13:30:45:888 -> 2090
13:30:45:890 -> 2017
13:30:45:890 -> 2075
13:30:45:893 -> 2042
13:30:45:903 -> 2070
13:30:45:914 -> 2076
13:30:45:923 -> 2056
13:30:45:933 -> 2098
13:30:45:944 -> 2050
13:30:45:953 -> 2101
13:30:45:964 -> 2048
13:30:45:974 -> 2092
13:30:45:984 -> 2053
13:30:45:994 -> 2126
13:30:46:009 -> 2054
13:30:46:014 -> 2096
13:30:46:024 -> 2075
13:30:46:034 -> 2104
13:30:46:044 -> 2044
13:30:46:054 -> 2094
13:30:46:064 -> 2031
13:30:46:095 -> 2175
13:30:46:097 -> 1957
13:30:46:097 -> 2177
13:30:46:104 -> 1910
13:30:46:114 -> 2273
13:30:46:126 -> 2030
13:30:46:134 -> 2273
13:30:46:151 -> 2084
13:30:46:157 -> 2029
13:30:46:165 -> 2168
13:30:46:174 -> 2140
13:30:46:184 -> 2136
13:30:46:195 -> 1902
13:30:46:205 -> 2081
13:30:46:216 -> 2092
13:30:46:229 -> 2119
13:30:46:236 -> 2152
13:30:46:247 -> 2179
13:30:46:264 -> 2140
13:30:46:267 -> 2080
13:30:46:277 -> 2097
13:30:46:287 -> 1900
13:30:46:296 -> 1968
13:30:46:309 -> 2058
13:30:46:317 -> 2037
13:30:46:326 -> 2248
13:30:46:339 -> 2095
13:30:46:346 -> 2122
13:30:46:355 -> 2003
13:30:46:365 -> 2201
13:30:46:386 -> 2003
13:30:46:391 -> 2219
13:30:46:398 -> 2380
13:30:46:406 -> 1698
13:30:46:417 -> 2078
13:30:46:426 -> 2170
13:30:46:436 -> 2234
13:30:46:446 -> 2035
13:30:46:456 -> 2339
13:30:46:466 -> 2618
13:30:46:476 -> 2224
13:30:46:520 -> 2257
13:30:46:520 -> 2208
13:30:46:520 -> 2331
13:30:46:520 -> 1911
13:30:46:561 -> 2117
13:30:46:561 -> 2241
13:30:46:561 -> 2252
13:30:46:561 -> 1719
13:30:46:633 -> 2478
13:30:46:633 -> 2048
13:30:46:633 -> 2046
13:30:46:635 -> 2139
13:30:46:635 -> 2851
13:30:46:635 -> 2085
13:30:46:635 -> 2298
13:30:46:637 -> 1615
13:30:46:647 -> 2438
13:30:46:657 -> 1660
13:30:46:667 -> 2357
13:30:46:677 -> 1928
13:30:46:687 -> 2106
13:30:46:697 -> 1786
13:30:46:707 -> 2297
13:30:46:717 -> 2305
13:30:46:727 -> 2250
13:30:46:742 -> 2037
13:30:46:747 -> 2146
13:30:46:762 -> 2067
13:30:46:767 -> 2182
13:30:46:777 -> 2052
13:30:46:787 -> 2041
13:30:46:797 -> 2072
13:30:46:809 -> 2233
13:30:46:817 -> 1954
13:30:46:829 -> 2241
13:30:46:838 -> 2023
13:30:46:848 -> 2343
13:30:46:858 -> 1994
13:30:46:868 -> 1833
13:30:46:878 -> 2030
13:30:46:888 -> 2135
13:30:46:898 -> 1735
13:30:46:909 -> 2503
13:30:46:918 -> 2030
13:30:46:938 -> 1906
13:30:46:929 -> 2098
13:30:46:948 -> 2179
13:30:46:958 -> 2039
13:30:46:969 -> 2244
13:30:46:979 -> 2148
13:30:46:988 -> 1874
13:30:46:998 -> 1774
13:30:47:022 -> 2203
13:30:47:026 -> 1954
13:30:47:028 -> 1874
13:30:47:039 -> 1822
13:30:47:050 -> 1491
13:30:47:059 -> 2398
13:30:47:069 -> 2223
13:30:47:079 -> 1620
13:30:47:089 -> 2373
13:30:47:099 -> 1912
13:30:47:109 -> 2166
13:30:47:128 -> 2033
13:30:47:130 -> 2400
13:30:47:179 -> 1938
13:30:47:191 -> 2167
13:30:47:191 -> 1917
13:30:47:191 -> 2271
13:30:47:191 -> 1990
13:30:47:191 -> 2314
13:30:47:214 -> 1903
13:30:47:214 -> 1912
13:30:47:227 -> 2161
13:30:47:236 -> 1869
13:30:47:242 -> 2011
13:30:47:249 -> 1981
13:30:47:261 -> 2283
13:30:47:270 -> 2283
13:30:47:280 -> 1993
13:30:47:290 -> 2011
13:30:47:300 -> 2125
13:30:47:310 -> 2060
13:30:47:327 -> 1912
13:30:47:333 -> 2224
13:30:47:340 -> 2061
13:30:47:350 -> 2205
13:30:47:360 -> 1879
13:30:47:370 -> 2263
13:30:47:380 -> 1827
13:30:47:400 -> 2000
13:30:47:407 -> 2294
13:30:47:419 -> 1931
13:30:47:421 -> 1986
13:30:47:430 -> 1637
13:30:47:440 -> 1934
13:30:47:450 -> 2459
13:30:47:460 -> 1803
13:30:47:470 -> 2178
13:30:47:481 -> 2011
13:30:47:491 -> 2067
13:30:47:501 -> 1990
13:30:47:511 -> 2000
13:30:47:521 -> 2074
13:30:47:531 -> 2140
13:30:47:541 -> 2128
13:30:47:551 -> 1986
13:30:47:562 -> 1852
13:30:47:571 -> 2242
13:30:47:581 -> 1947
13:30:47:591 -> 2187
13:30:47:601 -> 2263
13:30:47:611 -> 1969
13:30:47:621 -> 2070
13:30:47:631 -> 2005
13:30:47:642 -> 2116
13:30:47:654 -> 2467
13:30:47:661 -> 1765
13:30:47:671 -> 2074
13:30:47:702 -> 2327
13:30:47:703 -> 2031
13:30:47:703 -> 2192
13:30:47:712 -> 2004
13:30:47:722 -> 2128
13:30:47:732 -> 2305
13:30:47:742 -> 1811
13:30:47:752 -> 2329
13:30:47:762 -> 2186
13:30:47:772 -> 1929
13:30:47:782 -> 2262
13:30:47:792 -> 1829
13:30:47:802 -> 2232
13:30:47:812 -> 2000
13:30:47:822 -> 2017
13:30:47:832 -> 2203
13:30:47:842 -> 2561
13:30:47:852 -> 1911
13:30:47:862 -> 2257
13:30:47:872 -> 2002
13:30:47:882 -> 2018
13:30:47:893 -> 1993
13:30:47:902 -> 2153
13:30:47:912 -> 2041
13:30:47:929 -> 2158
13:30:47:933 -> 1942
13:30:47:943 -> 2161
13:30:47:955 -> 1989
13:30:47:963 -> 2082
13:30:47:973 -> 1983
13:30:47:983 -> 2082
13:30:47:993 -> 2014
13:30:48:003 -> 2081
13:30:48:013 -> 2066
13:30:48:023 -> 2052
13:30:48:033 -> 2063
13:30:48:044 -> 2070
13:30:48:053 -> 2108
13:30:48:063 -> 2053
13:30:48:081 -> 2073
13:30:48:086 -> 2032
13:30:48:093 -> 2104
13:30:48:103 -> 2048
13:30:48:113 -> 2116
13:30:48:124 -> 2054
13:30:48:133 -> 2113
13:30:48:144 -> 2059
13:30:48:154 -> 2113
13:30:48:164 -> 2058
13:30:48:175 -> 2120
13:30:48:184 -> 2057
13:30:48:196 -> 2147
13:30:48:231 -> 2062
13:30:48:232 -> 2130
13:30:48:232 -> 2070
13:30:48:234 -> 2093
13:30:48:244 -> 2077
13:30:48:256 -> 2086
13:30:48:264 -> 2064
13:30:48:274 -> 2099
13:30:48:292 -> 2091
13:30:48:294 -> 2076
13:30:48:304 -> 2081
13:30:48:314 -> 2082
13:30:48:325 -> 2071
13:30:48:335 -> 2097
13:30:48:375 -> 2083
13:30:48:375 -> 2110
13:30:48:375 -> 2076
13:30:48:375 -> 2111
13:30:48:418 -> 2070
13:30:48:418 -> 2105
13:30:48:418 -> 2083
13:30:48:418 -> 2106
13:30:48:432 -> 2051
13:30:48:442 -> 2094
13:30:48:467 -> 2089
13:30:48:467 -> 2095
13:30:48:467 -> 2088
13:30:48:485 -> 2062
13:30:48:485 -> 2100
13:30:48:495 -> 2049
13:30:48:505 -> 2085
13:30:48:519 -> 2051
13:30:48:526 -> 2115
13:30:48:535 -> 2038
13:30:48:545 -> 2083
13:30:48:555 -> 2036
13:30:48:565 -> 2106
13:30:48:575 -> 2028
13:30:48:586 -> 2138
13:30:48:596 -> 2024
13:30:48:606 -> 2130
13:30:48:616 -> 2035
13:30:48:633 -> 2130
13:30:48:636 -> 2032
13:30:48:646 -> 2137
13:30:48:656 -> 1990
13:30:48:666 -> 2141
13:30:48:676 -> 2041
13:30:48:686 -> 2141
13:30:48:696 -> 2000
13:30:48:706 -> 2145
13:30:48:716 -> 2008
13:30:48:757 -> 2168
13:30:48:764 -> 2001
13:30:48:764 -> 2177
13:30:48:764 -> 1980
13:30:48:766 -> 2193
13:30:48:776 -> 1973
13:30:48:787 -> 2204
13:30:48:797 -> 1961
13:30:48:806 -> 2202
13:30:48:817 -> 1944
13:30:48:827 -> 2197
13:30:48:837 -> 1965
13:30:48:847 -> 2227
13:30:48:857 -> 1941
13:30:48:867 -> 2215
13:30:48:877 -> 1938
13:30:48:887 -> 2216
13:30:48:897 -> 1916
13:30:48:907 -> 2235
13:30:48:917 -> 1945
13:30:48:927 -> 2205
13:30:48:937 -> 1961
13:30:48:947 -> 2244
13:30:48:957 -> 1955
13:30:48:973 -> 2205
13:30:48:979 -> 1963
13:30:48:987 -> 2231
13:30:48:997 -> 1957
13:30:49:007 -> 2215
13:30:49:017 -> 1965
13:30:49:027 -> 2213
13:30:49:038 -> 1973
13:30:49:048 -> 2208
13:30:49:058 -> 1959
13:30:49:068 -> 2187
13:30:49:078 -> 1983
13:30:49:088 -> 2192
13:30:49:098 -> 1973
13:30:49:108 -> 2196
13:30:49:118 -> 1956
13:30:49:128 -> 2181
13:30:49:138 -> 1966
13:30:49:148 -> 2175
13:30:49:160 -> 1968
13:30:49:170 -> 2199
13:30:49:178 -> 1956
13:30:49:195 -> 2178
13:30:49:198 -> 1964
13:30:49:208 -> 2175
13:30:49:229 -> 1976
13:30:49:229 -> 2177
13:30:49:238 -> 1971
13:30:49:254 -> 2178
13:30:49:298 -> 1978
13:30:49:299 -> 2167
13:30:49:299 -> 1973
13:30:49:299 -> 2149
13:30:49:299 -> 1981
13:30:49:309 -> 2171
13:30:49:319 -> 1974
13:30:49:329 -> 2156
13:30:49:342 -> 1992
13:30:49:349 -> 2150
13:30:49:360 -> 1996
13:30:49:369 -> 2145
13:30:49:379 -> 1998
13:30:49:389 -> 2149
13:30:49:399 -> 1980
13:30:49:409 -> 2133
13:30:49:419 -> 2023
13:30:49:429 -> 2120
13:30:49:439 -> 2011
13:30:49:450 -> 2121
13:30:49:460 -> 2020
13:30:49:470 -> 2127
13:30:49:480 -> 2044
13:30:49:490 -> 2137
13:30:49:500 -> 2049
13:30:49:510 -> 2140
13:30:49:520 -> 2068
13:30:49:530 -> 2137
13:30:49:540 -> 2058
13:30:49:553 -> 2142
13:30:49:563 -> 2046
13:30:49:570 -> 2131
13:30:49:580 -> 2067
13:30:49:590 -> 2132
13:30:49:600 -> 2054
13:30:49:610 -> 2139
13:30:49:620 -> 2064
13:30:49:630 -> 2123
13:30:49:640 -> 2063
13:30:49:650 -> 2122
13:30:49:660 -> 2069
13:30:49:670 -> 2117
13:30:49:680 -> 2065
13:30:49:691 -> 2103
13:30:49:701 -> 2070
13:30:49:711 -> 2109
13:30:49:721 -> 2071
13:30:49:731 -> 2097
13:30:49:741 -> 2058
13:30:49:751 -> 2081
13:30:49:761 -> 2049
13:30:49:771 -> 2092
13:30:49:781 -> 2072
13:30:49:797 -> 2088
13:30:49:837 -> 2051
13:30:49:838 -> 2067
13:30:49:838 -> 2079
13:30:49:838 -> 2093
13:30:49:841 -> 2030
13:30:49:851 -> 2075
13:30:49:861 -> 2087
13:30:49:871 -> 2105
13:30:49:882 -> 2074
13:30:49:892 -> 2053
13:30:49:902 -> 2064
13:30:49:933 -> 2067
13:30:49:935 -> 2079
13:30:49:935 -> 2067
13:30:49:942 -> 2115
13:30:49:966 -> 2036
13:30:49:966 -> 2118
13:30:49:972 -> 2006
13:30:49:982 -> 2127
13:30:49:992 -> 1964
13:30:50:002 -> 2150
13:30:50:012 -> 2020
13:30:50:022 -> 2122
13:30:50:032 -> 2043
13:30:50:042 -> 2164
13:30:50:052 -> 2134
13:30:50:062 -> 2030
13:30:50:072 -> 2102
13:30:50:083 -> 2003
13:30:50:092 -> 2397
13:30:50:102 -> 1643
13:30:50:120 -> 2062
13:30:50:122 -> 2729
13:30:50:133 -> 1993
13:30:50:145 -> 2157
13:30:50:153 -> 2386
13:30:50:163 -> 2198
13:30:50:173 -> 2148
13:30:50:183 -> 2027
13:30:50:194 -> 2093
13:30:50:204 -> 1636
13:30:50:213 -> 2285
13:30:50:223 -> 2010
13:30:50:233 -> 1720
13:30:50:243 -> 2125
13:30:50:253 -> 2119
13:30:50:263 -> 2154
13:30:50:273 -> 2131
13:30:50:285 -> 2235
13:30:50:293 -> 1947
13:30:50:303 -> 1869
13:30:50:313 -> 2084
13:30:50:324 -> 1969
13:30:50:334 -> 1184
13:30:50:371 -> 2142
13:30:50:374 -> 2297
13:30:50:374 -> 2082
13:30:50:374 -> 1997
13:30:50:384 -> 2172
13:30:50:394 -> 2324
13:30:50:404 -> 2299
13:30:50:423 -> 1969
13:30:50:427 -> 1998
13:30:50:434 -> 1758
13:30:50:444 -> 2116
13:30:50:455 -> 1946
13:30:50:464 -> 1971
13:30:50:474 -> 2059
13:30:50:484 -> 2210
13:30:50:494 -> 1952
13:30:50:504 -> 2321
13:30:50:514 -> 2190
13:30:50:525 -> 2231
13:30:50:534 -> 2059
13:30:50:545 -> 1976
13:30:50:555 -> 2155
13:30:50:565 -> 2253
13:30:50:575 -> 2159
13:30:50:585 -> 2153
13:30:50:595 -> 2014
13:30:50:605 -> 2108
13:30:50:615 -> 2134
13:30:50:625 -> 2289
13:30:50:635 -> 2170
13:30:50:645 -> 2035
13:30:50:655 -> 2010
13:30:50:665 -> 2083
13:30:50:680 -> 2189
13:30:50:687 -> 2165
13:30:50:695 -> 1780
13:30:50:705 -> 2047
13:30:50:715 -> 2061
13:30:50:725 -> 2148
13:30:50:735 -> 2214
13:30:50:745 -> 1813
13:30:50:755 -> 2116
13:30:50:765 -> 1675
13:30:50:776 -> 1965
13:30:50:785 -> 2377
13:30:50:796 -> 1814
13:30:50:806 -> 2184
13:30:50:816 -> 1833
13:30:50:826 -> 1971
13:30:50:836 -> 2031
13:30:50:849 -> 2056
13:30:50:856 -> 1641
13:30:50:868 -> 2266
13:30:50:898 -> 2152
13:30:50:898 -> 2281
13:30:50:898 -> 1327
13:30:50:906 -> 2255
13:30:50:916 -> 2199
13:30:50:926 -> 1812
13:30:50:936 -> 2038
13:30:50:946 -> 2096
13:30:50:956 -> 2047
13:30:50:966 -> 2207
13:30:50:976 -> 2047
13:30:50:987 -> 2139
13:30:50:997 -> 2146
13:30:51:006 -> 2369
13:30:51:017 -> 2005
13:30:51:027 -> 2051
13:30:51:039 -> 2131
13:30:51:047 -> 2456
13:30:51:065 -> 1790
13:30:51:071 -> 2472
13:30:51:077 -> 1722
13:30:51:087 -> 2311
13:30:51:097 -> 2101
13:30:51:107 -> 2339
13:30:51:117 -> 1930
13:30:51:127 -> 2282
13:30:51:137 -> 1894
13:30:51:147 -> 2181
13:30:51:157 -> 1965
13:30:51:167 -> 2287
13:30:51:177 -> 1882
13:30:51:187 -> 2340
13:30:51:197 -> 2056
13:30:51:207 -> 2145
13:30:51:217 -> 2120
13:30:51:227 -> 2097
13:30:51:237 -> 2128
13:30:51:248 -> 2346
13:30:51:258 -> 1987
13:30:51:268 -> 2281
13:30:51:278 -> 2143
13:30:51:299 -> 2283
13:30:51:301 -> 2095
13:30:51:308 -> 2110
13:30:51:318 -> 1897
13:30:51:328 -> 2276
13:30:51:338 -> 2025
13:30:51:348 -> 2046
13:30:51:358 -> 1989
13:30:51:368 -> 2168
13:30:51:378 -> 2016
13:30:51:388 -> 2040
13:30:51:425 -> 2486
13:30:51:426 -> 2068
13:30:51:426 -> 2049
13:30:51:429 -> 2061
13:30:51:438 -> 2006
13:30:51:449 -> 2476
13:30:51:460 -> 2122
13:30:51:469 -> 2108
13:30:51:479 -> 2078
13:30:51:489 -> 2209
13:30:51:499 -> 2037
13:30:51:509 -> 2174
13:30:51:519 -> 2079
13:30:51:529 -> 2093
13:30:51:539 -> 2146
13:30:51:549 -> 2089
13:30:51:564 -> 1938
13:30:51:569 -> 2127
13:30:51:579 -> 2079
13:30:51:589 -> 2103
13:30:51:599 -> 2044
13:30:51:613 -> 2153
13:30:51:634 -> 2089
13:30:51:634 -> 2124
13:30:51:654 -> 2074
13:30:51:654 -> 2123
13:30:51:676 -> 1964
13:30:51:676 -> 2055
13:30:51:689 -> 2114
13:30:51:690 -> 2122
13:30:51:700 -> 2090
13:30:51:710 -> 2282
13:30:51:720 -> 2012
13:30:51:731 -> 2120
13:30:51:740 -> 2072
13:30:51:750 -> 2081
13:30:51:760 -> 2070
13:30:51:770 -> 2137
13:30:51:780 -> 2139
13:30:51:790 -> 2114
13:30:51:800 -> 2100
13:30:51:810 -> 2089
13:30:51:820 -> 2071
13:30:51:830 -> 2154
13:30:51:840 -> 2027
13:30:51:850 -> 2071
13:30:51:865 -> 2047
13:30:51:870 -> 2008
13:30:51:881 -> 2059
13:30:51:890 -> 2048
13:30:51:900 -> 2093
13:30:51:911 -> 2086
13:30:51:921 -> 2065
13:30:51:952 -> 2071
13:30:51:953 -> 2064
13:30:51:953 -> 2110
13:30:51:961 -> 2102
13:30:51:971 -> 2127
13:30:51:981 -> 2074
13:30:51:991 -> 2073
13:30:52:001 -> 2066
13:30:52:011 -> 2061
13:30:52:021 -> 2079
13:30:52:032 -> 2068
13:30:52:042 -> 2190
13:30:52:051 -> 2073
13:30:52:065 -> 2126
13:30:52:077 -> 2001
13:30:52:081 -> 2160
13:30:52:104 -> 2025
13:30:52:115 -> 2102
13:30:52:115 -> 2010
13:30:52:122 -> 2124
13:30:52:133 -> 2045
13:30:52:142 -> 2124
13:30:52:152 -> 1973
13:30:52:162 -> 2119
13:30:52:172 -> 2056
13:30:52:182 -> 2107
13:30:52:192 -> 2070
13:30:52:202 -> 2069
13:30:52:212 -> 2091
13:30:52:222 -> 2083
13:30:52:232 -> 2099
13:30:52:243 -> 2068
13:30:52:263 -> 2067
13:30:52:296 -> 2073
13:30:52:296 -> 2095
13:30:52:296 -> 2061
13:30:52:296 -> 2120
13:30:52:322 -> 2060
13:30:52:322 -> 2101
13:30:52:352 -> 2080
13:30:52:352 -> 2102
13:30:52:352 -> 2065
13:30:52:356 -> 2113
13:30:52:388 -> 2069
13:30:52:388 -> 2125
13:30:52:388 -> 2063
13:30:52:395 -> 2112
13:30:52:403 -> 2052
13:30:52:413 -> 2099
13:30:52:423 -> 2071
13:30:52:438 -> 2092
13:30:52:444 -> 2071
13:30:52:489 -> 2093
13:30:52:491 -> 2089
13:30:52:491 -> 2087
13:30:52:491 -> 2085
13:30:52:493 -> 2063
13:30:52:504 -> 2078
13:30:52:513 -> 2073
13:30:52:523 -> 2065
13:30:52:533 -> 2087
13:30:52:545 -> 2046
13:30:52:553 -> 2112
13:30:52:564 -> 2051
13:30:52:574 -> 2090
13:30:52:584 -> 2057
13:30:52:594 -> 2084
13:30:52:604 -> 2051
13:30:52:614 -> 2068
13:30:52:624 -> 2070
13:30:52:634 -> 2052
13:30:52:644 -> 2088
13:30:52:654 -> 2025
13:30:52:664 -> 2084
13:30:52:675 -> 2012
13:30:52:684 -> 2104
13:30:52:694 -> 2030
13:30:52:704 -> 2102
13:30:52:714 -> 2014
13:30:52:724 -> 2122
13:30:52:734 -> 2033
13:30:52:750 -> 2130
13:30:52:754 -> 2028
13:30:52:765 -> 2125
13:30:52:775 -> 2013
13:30:52:785 -> 2135
13:30:52:795 -> 2009
13:30:52:805 -> 2130
13:30:52:815 -> 2017
13:30:52:826 -> 2139
13:30:52:835 -> 2009
13:30:52:845 -> 2150
13:30:52:855 -> 2066
13:30:52:865 -> 2153
13:30:52:875 -> 2025
13:30:52:885 -> 2163
13:30:52:895 -> 2024
13:30:52:905 -> 2176
13:30:52:915 -> 2000
13:30:52:926 -> 2193
13:30:52:935 -> 2001
13:30:52:945 -> 2188
13:30:52:964 -> 1982
13:30:52:965 -> 2208
13:30:52:977 -> 1985
13:30:52:986 -> 2214
13:30:53:020 -> 1978
13:30:53:020 -> 2218
13:30:53:020 -> 1981
13:30:53:026 -> 2219
13:30:53:036 -> 1948
13:30:53:046 -> 2225
13:30:53:056 -> 1972
13:30:53:066 -> 2232
13:30:53:077 -> 1972
13:30:53:086 -> 2214
13:30:53:096 -> 1953
13:30:53:106 -> 2197
13:30:53:117 -> 1948
13:30:53:129 -> 2206
13:30:53:137 -> 1953
13:30:53:147 -> 2218
13:30:53:161 -> 1940
13:30:53:167 -> 2201
13:30:53:177 -> 1951
13:30:53:186 -> 2183
13:30:53:196 -> 1948
13:30:53:206 -> 2190
13:30:53:217 -> 1945
13:30:53:227 -> 2181
13:30:53:237 -> 1933
13:30:53:247 -> 2172
13:30:53:257 -> 1921
13:30:53:267 -> 2157
13:30:53:277 -> 1935
13:30:53:292 -> 2172
13:30:53:297 -> 1929
13:30:53:307 -> 2174
13:30:53:317 -> 1956
13:30:53:327 -> 2158
13:30:53:337 -> 1950
13:30:53:348 -> 2161
13:30:53:359 -> 1978
13:30:53:367 -> 2155
13:30:53:382 -> 1979
13:30:53:419 -> 2166
13:30:53:419 -> 1975
13:30:53:419 -> 2153
13:30:53:419 -> 1986
13:30:53:436 -> 2160
13:30:53:460 -> 1978
13:30:53:460 -> 2158
13:30:53:460 -> 1996
13:30:53:468 -> 2138
13:30:53:478 -> 1997
13:30:53:489 -> 2153
13:30:53:498 -> 1993
13:30:53:508 -> 2149
13:30:53:518 -> 1999
13:30:53:548 -> 2150
13:30:53:551 -> 2017
13:30:53:551 -> 2146
13:30:53:558 -> 2031
13:30:53:568 -> 2152
13:30:53:578 -> 2042
13:30:53:588 -> 2142
13:30:53:598 -> 2054
13:30:53:614 -> 2143
13:30:53:619 -> 2044
13:30:53:628 -> 2155
13:30:53:638 -> 2047
13:30:53:648 -> 2154
13:30:53:658 -> 2040
13:30:53:669 -> 2153
13:30:53:679 -> 2043
13:30:53:689 -> 2140
13:30:53:699 -> 2032
13:30:53:709 -> 2145
13:30:53:719 -> 2037
13:30:53:729 -> 2162
13:30:53:739 -> 2042
13:30:53:749 -> 2109
13:30:53:771 -> 1991
13:30:53:773 -> 2169
13:30:53:779 -> 2006
13:30:53:789 -> 2152
13:30:53:801 -> 2033
13:30:53:809 -> 2116
13:30:53:819 -> 2071
13:30:53:829 -> 2058
13:30:53:839 -> 2042
13:30:53:849 -> 2100
13:30:53:860 -> 2040
13:30:53:870 -> 2031
13:30:53:880 -> 2085
13:30:53:890 -> 2130
13:30:53:900 -> 2068
13:30:53:910 -> 2117
13:30:53:920 -> 2033
13:30:53:930 -> 2106
13:30:53:949 -> 2093
13:30:53:950 -> 2108
13:30:53:960 -> 2117
13:30:53:973 -> 2131
13:30:53:980 -> 2153
13:30:53:990 -> 2031
13:30:54:000 -> 2112
13:30:54:013 -> 2023
13:30:54:020 -> 1917
13:30:54:030 -> 2038
13:30:54:040 -> 2043
13:30:54:078 -> 2015
13:30:54:079 -> 2136
13:30:54:079 -> 2105
13:30:54:081 -> 1938
13:30:54:091 -> 2093
13:30:54:101 -> 1997
13:30:54:111 -> 2029
13:30:54:121 -> 2259
13:30:54:131 -> 2085
13:30:54:143 -> 2516
13:30:54:151 -> 1979
13:30:54:161 -> 1646
13:30:54:171 -> 2024
13:30:54:181 -> 2215
13:30:54:192 -> 1910
13:30:54:201 -> 2150
13:30:54:220 -> 1955
13:30:54:222 -> 2154
13:30:54:231 -> 1871
13:30:54:241 -> 1989
13:30:54:251 -> 2198
13:30:54:262 -> 1226
13:30:54:271 -> 2093
13:30:54:281 -> 2003
13:30:54:291 -> 2038
13:30:54:301 -> 2001
13:30:54:311 -> 2227
13:30:54:322 -> 1899
13:30:54:332 -> 2148
13:30:54:342 -> 2066
13:30:54:352 -> 2272
13:30:54:362 -> 1740
13:30:54:372 -> 2107
13:30:54:383 -> 2034
13:30:54:393 -> 2220
13:30:54:403 -> 2495
13:30:54:414 -> 1841
13:30:54:423 -> 2219
13:30:54:432 -> 2020
13:30:54:442 -> 2150
13:30:54:452 -> 2125
13:30:54:475 -> 1810
13:30:54:477 -> 2369
13:30:54:482 -> 2204
13:30:54:492 -> 2034
13:30:54:502 -> 2155
13:30:54:512 -> 2031
13:30:54:522 -> 2082
13:30:54:532 -> 2334
13:30:54:542 -> 2241
13:30:54:552 -> 2024
13:30:54:562 -> 2285
13:30:54:573 -> 2164
13:30:54:600 -> 2217
13:30:54:602 -> 1819
13:30:54:603 -> 2433
13:30:54:613 -> 2192
13:30:54:623 -> 2025
13:30:54:633 -> 1580
13:30:54:643 -> 2209
13:30:54:653 -> 2088
13:30:54:663 -> 1769
13:30:54:673 -> 1846
13:30:54:683 -> 2093
13:30:54:693 -> 1783
13:30:54:703 -> 2176
13:30:54:713 -> 2135
13:30:54:723 -> 2343
13:30:54:733 -> 2007
13:30:54:743 -> 1997
13:30:54:753 -> 2097
13:30:54:763 -> 2072
13:30:54:781 -> 2075
13:30:54:783 -> 2214
13:30:54:795 -> 2375
13:30:54:804 -> 1846
13:30:54:814 -> 2085
13:30:54:824 -> 2180
13:30:54:834 -> 2094
13:30:54:844 -> 2095
13:30:54:855 -> 2129
13:30:54:865 -> 2326
13:30:54:875 -> 2242
13:30:54:884 -> 2272
13:30:54:894 -> 2137
13:30:54:904 -> 2085
13:30:54:914 -> 1942
13:30:54:924 -> 2101
13:30:54:934 -> 2219
13:30:54:944 -> 2188
13:30:54:954 -> 2282
13:30:54:964 -> 2104
13:30:54:975 -> 2172
13:30:54:985 -> 2272
13:30:54:995 -> 2405
13:30:55:004 -> 2153
13:30:55:014 -> 1960
13:30:55:025 -> 2141
13:30:55:035 -> 2220
13:30:55:046 -> 2256
13:30:55:055 -> 1956
13:30:55:071 -> 2000
13:30:55:075 -> 2002
13:30:55:095 -> 2256
13:30:55:095 -> 1905
13:30:55:126 -> 2259
13:30:55:128 -> 1770
13:30:55:128 -> 2040
13:30:55:136 -> 2074
13:30:55:145 -> 2454
13:30:55:155 -> 2166
13:30:55:165 -> 2126
13:30:55:176 -> 2062
13:30:55:185 -> 2052
13:30:55:195 -> 1870
13:30:55:205 -> 2173
13:30:55:215 -> 1928
13:30:55:226 -> 2146
13:30:55:235 -> 1941
13:30:55:246 -> 2232
13:30:55:280 -> 1899
13:30:55:318 -> 2012
13:30:55:318 -> 2141
13:30:55:318 -> 2207
13:30:55:321 -> 2017
13:30:55:321 -> 2074
13:30:55:321 -> 2068
13:30:55:327 -> 1931
13:30:55:336 -> 1534
13:30:55:360 -> 2365
13:30:55:360 -> 1942
13:30:55:366 -> 2120
13:30:55:380 -> 2402
13:30:55:386 -> 2343
13:30:55:402 -> 2160
13:30:55:406 -> 2428
13:30:55:416 -> 2063
13:30:55:426 -> 2152
13:30:55:438 -> 1907
13:30:55:448 -> 2064
13:30:55:457 -> 2118
13:30:55:467 -> 2399
13:30:55:477 -> 1704
13:30:55:487 -> 2087
13:30:55:497 -> 1997
13:30:55:510 -> 2159
13:30:55:517 -> 1884
13:30:55:527 -> 2299
13:30:55:537 -> 1813
13:30:55:547 -> 2200
13:30:55:558 -> 1939
13:30:55:567 -> 2234
13:30:55:578 -> 2116
13:30:55:587 -> 2112
13:30:55:598 -> 2248
13:30:55:609 -> 1970
13:30:55:622 -> 2072
13:30:55:651 -> 2048
13:30:55:652 -> 2113
13:30:55:652 -> 1374
13:30:55:658 -> 1865
13:30:55:667 -> 2142
13:30:55:677 -> 2650
13:30:55:688 -> 2121
13:30:55:698 -> 2049
13:30:55:708 -> 2132
13:30:55:722 -> 2013
13:30:55:728 -> 2154
13:30:55:738 -> 1796
13:30:55:748 -> 2349
13:30:55:758 -> 2101
13:30:55:768 -> 2079
13:30:55:778 -> 2061
13:30:55:788 -> 2085
13:30:55:798 -> 1886
13:30:55:808 -> 2174
13:30:55:819 -> 2075
13:30:55:828 -> 2135
13:30:55:842 -> 2097
13:30:55:848 -> 2102
13:30:55:859 -> 2067
13:30:55:868 -> 2145
13:30:55:878 -> 2015
13:30:55:888 -> 2135
13:30:55:898 -> 2058
13:30:55:915 -> 2138
13:30:55:919 -> 2004
13:30:55:929 -> 2181
13:30:55:939 -> 2047
13:30:55:949 -> 2136
13:30:55:959 -> 2071
13:30:55:969 -> 2132
13:30:55:979 -> 2037
13:30:55:989 -> 2166
13:30:55:999 -> 2080
13:30:56:009 -> 2098
13:30:56:020 -> 2038
13:30:56:030 -> 2111
13:30:56:039 -> 2046
13:30:56:049 -> 2114
13:30:56:059 -> 2079
13:30:56:069 -> 2102
13:30:56:080 -> 2058
13:30:56:090 -> 2089
13:30:56:100 -> 2056
13:30:56:115 -> 2084
13:30:56:119 -> 2068
13:30:56:129 -> 2065
13:30:56:140 -> 2052
13:30:56:150 -> 2094
13:30:56:173 -> 2061
13:30:56:176 -> 2058
13:30:56:180 -> 2062
13:30:56:190 -> 2080
13:30:56:200 -> 2061
13:30:56:210 -> 2092
13:30:56:220 -> 2055
13:30:56:230 -> 2064
13:30:56:241 -> 2097
13:30:56:250 -> 2033
13:30:56:260 -> 2126
13:30:56:270 -> 2013
13:30:56:280 -> 2126
13:30:56:291 -> 2019
13:30:56:300 -> 2117
13:30:56:311 -> 2021
13:30:56:320 -> 2113
13:30:56:330 -> 2044
13:30:56:349 -> 2107
13:30:56:351 -> 2050
13:30:56:361 -> 2098
13:30:56:371 -> 2054
13:30:56:381 -> 2090
13:30:56:391 -> 2070
13:30:56:401 -> 2066
13:30:56:411 -> 2094
13:30:56:421 -> 2055
13:30:56:431 -> 2112
13:30:56:441 -> 2047
13:30:56:451 -> 2124
13:30:56:461 -> 2052
13:30:56:472 -> 2101
13:30:56:481 -> 2069
13:30:56:491 -> 2113
13:30:56:501 -> 2054
13:30:56:511 -> 2128
13:30:56:521 -> 2068
13:30:56:531 -> 2125
13:30:56:541 -> 2068
13:30:56:551 -> 2137
13:30:56:562 -> 2058
13:30:56:572 -> 2137
13:30:56:582 -> 2076
13:30:56:592 -> 2139
13:30:56:602 -> 2089
13:30:56:612 -> 2120
13:30:56:622 -> 2088
13:30:56:632 -> 2098
13:30:56:642 -> 2100
13:30:56:652 -> 2094
13:30:56:662 -> 2113
13:30:56:672 -> 2084
13:30:56:702 -> 2100
13:30:56:705 -> 2109
13:30:56:705 -> 2097
13:30:56:712 -> 2089
13:30:56:722 -> 2089
13:30:56:732 -> 2095
13:30:56:743 -> 2070
13:30:56:758 -> 2091
13:30:56:799 -> 2065
13:30:56:799 -> 2075
13:30:56:799 -> 2064
13:30:56:799 -> 2062
13:30:56:830 -> 2077
13:30:56:830 -> 2034
13:30:56:830 -> 2105
13:30:56:833 -> 2046
13:30:56:845 -> 2071
13:30:56:863 -> 2030
13:30:56:863 -> 2098
13:30:56:873 -> 2034
13:30:56:883 -> 2091
13:30:56:893 -> 2012
13:30:56:903 -> 2086
13:30:56:913 -> 1996
13:30:56:931 -> 2083
13:30:56:933 -> 2004
13:30:56:944 -> 2087
13:30:56:953 -> 1982
13:30:56:963 -> 2090
13:30:56:974 -> 1974
13:30:56:983 -> 2105
13:30:56:993 -> 1970
13:30:57:004 -> 2101
13:30:57:014 -> 1957
13:30:57:024 -> 2110
13:30:57:034 -> 1980
13:30:57:044 -> 2085
13:30:57:054 -> 1986
13:30:57:064 -> 2112
13:30:57:074 -> 1992
13:30:57:084 -> 2116
13:30:57:094 -> 1988
13:30:57:104 -> 2146
13:30:57:120 -> 1985
13:30:57:124 -> 2161
13:30:57:139 -> 1986
13:30:57:144 -> 2166
13:30:57:154 -> 1977
13:30:57:165 -> 2186
13:30:57:174 -> 1973
13:30:57:184 -> 2187
13:30:57:194 -> 1952
13:30:57:229 -> 2200
13:30:57:232 -> 1942
13:30:57:232 -> 2204
13:30:57:234 -> 1943
13:30:57:245 -> 2229
13:30:57:255 -> 1960
13:30:57:265 -> 2213
13:30:57:275 -> 1958
13:30:57:285 -> 2225
13:30:57:295 -> 1960
13:30:57:305 -> 2222
13:30:57:315 -> 1964
13:30:57:325 -> 2229
13:30:57:335 -> 1983
13:30:57:355 -> 2230
13:30:57:361 -> 1959
13:30:57:365 -> 2232
13:30:57:375 -> 1967
13:30:57:385 -> 2234
13:30:57:395 -> 1977
13:30:57:405 -> 2224
13:30:57:415 -> 1968
13:30:57:427 -> 2202
13:30:57:435 -> 1972
13:30:57:446 -> 2200
13:30:57:455 -> 1979
13:30:57:466 -> 2157
13:30:57:476 -> 1991
13:30:57:486 -> 2154
13:30:57:496 -> 1970
13:30:57:506 -> 2185
13:30:57:516 -> 1955
13:30:57:526 -> 2248
13:30:57:536 -> 1903
13:30:57:546 -> 2141
13:30:57:556 -> 2039
13:30:57:566 -> 2156
13:30:57:576 -> 1918
13:30:57:586 -> 2234
13:30:57:596 -> 1960
13:30:57:606 -> 2086
13:30:57:616 -> 1926
13:30:57:626 -> 2131
13:30:57:636 -> 1935
13:30:57:646 -> 2205
13:30:57:656 -> 2078
13:30:57:667 -> 2227
13:30:57:676 -> 1695
13:30:57:687 -> 2173
13:30:57:697 -> 2176
13:30:57:707 -> 2135
13:30:57:717 -> 2081
13:30:57:727 -> 2224
13:30:57:753 -> 2007
13:30:57:754 -> 2200
13:30:57:758 -> 1991
13:30:57:767 -> 2113
13:30:57:777 -> 1998
13:30:57:787 -> 2309
13:30:57:797 -> 1971
13:30:57:807 -> 2175
13:30:57:817 -> 1976
13:30:57:829 -> 2169
13:30:57:837 -> 1957
13:30:57:848 -> 2169
13:30:57:857 -> 2155
13:30:57:867 -> 2068
13:30:57:881 -> 2040
13:30:57:887 -> 1875
13:30:57:897 -> 2306
13:30:57:908 -> 2076
13:30:57:918 -> 1617
13:30:57:928 -> 1989
13:30:57:938 -> 2116
13:30:57:948 -> 2202
13:30:57:958 -> 2130
13:30:57:968 -> 2002
13:30:57:978 -> 1296
13:30:57:988 -> 2228
13:30:57:998 -> 1842
13:30:58:008 -> 2115
13:30:58:018 -> 2119
13:30:58:028 -> 2158
13:30:58:051 -> 2416
13:30:58:058 -> 1884
13:30:58:059 -> 2449
13:30:58:068 -> 1983
13:30:58:078 -> 2614
13:30:58:089 -> 2047
13:30:58:099 -> 2252
13:30:58:108 -> 2381
13:30:58:119 -> 1947
13:30:58:129 -> 2096
13:30:58:139 -> 1798
13:30:58:149 -> 1656
13:30:58:159 -> 2275
13:30:58:169 -> 2157
13:30:58:179 -> 2007
13:30:58:189 -> 1818
13:30:58:199 -> 1533
13:30:58:209 -> 2058
13:30:58:219 -> 2285
13:30:58:229 -> 1985
13:30:58:239 -> 1989
13:30:58:251 -> 2149
13:30:58:280 -> 2414
13:30:58:281 -> 2031
13:30:58:281 -> 2181
13:30:58:315 -> 1994
13:30:58:352 -> 2055
13:30:58:352 -> 2065
13:30:58:359 -> 2350
13:30:58:359 -> 2150
13:30:58:359 -> 2181
13:30:58:359 -> 2012
13:30:58:360 -> 2250
13:30:58:370 -> 2021
13:30:58:391 -> 2206
13:30:58:391 -> 1851
13:30:58:402 -> 2180
13:30:58:415 -> 1571
13:30:58:421 -> 2256
13:30:58:430 -> 1858
13:30:58:440 -> 2342
13:30:58:450 -> 2156
13:30:58:460 -> 1959
13:30:58:470 -> 1931
13:30:58:480 -> 2145
13:30:58:490 -> 2475
13:30:58:500 -> 2103
13:30:58:510 -> 2211
13:30:58:520 -> 2281
13:30:58:530 -> 1972
13:30:58:541 -> 2126
13:30:58:550 -> 2197
13:30:58:567 -> 2188
13:30:58:572 -> 2027
13:30:58:581 -> 2077
13:30:58:592 -> 2192
13:30:58:601 -> 1832
13:30:58:612 -> 2013
13:30:58:621 -> 1544
13:30:58:631 -> 1973
13:30:58:641 -> 2199
13:30:58:651 -> 1406
13:30:58:661 -> 2054
13:30:58:671 -> 2009
13:30:58:681 -> 2055
13:30:58:691 -> 2136
13:30:58:701 -> 2005
13:30:58:711 -> 2052
13:30:58:721 -> 1968
13:30:58:731 -> 2174
13:30:58:741 -> 2052
13:30:58:751 -> 2042
13:30:58:763 -> 1792
13:30:58:771 -> 2206
13:30:58:803 -> 2100
13:30:58:804 -> 2180
13:30:58:804 -> 2062
13:30:58:812 -> 1891
13:30:58:822 -> 2161
13:30:58:832 -> 2101
13:30:58:842 -> 2249
13:30:58:852 -> 2173
13:30:58:862 -> 2162
13:30:58:872 -> 2370
13:30:58:882 -> 2563
13:30:58:892 -> 1944
13:30:58:902 -> 2491
13:30:58:912 -> 2054
13:30:58:922 -> 2327
13:30:58:932 -> 2290
13:30:58:942 -> 2217
13:30:58:952 -> 1924
13:30:58:962 -> 2262
13:30:58:973 -> 2092
13:30:58:982 -> 2134
13:30:59:000 -> 2158
13:30:59:003 -> 774
13:30:59:013 -> 2201
13:30:59:023 -> 1720
13:30:59:033 -> 2041
13:30:59:043 -> 2257
13:30:59:053 -> 2080
13:30:59:063 -> 2340
13:30:59:073 -> 2107
13:30:59:083 -> 2294
13:30:59:093 -> 1118
13:30:59:104 -> 2103
13:30:59:113 -> 1377
13:30:59:123 -> 2311
13:30:59:133 -> 2001
13:30:59:143 -> 1965
13:30:59:153 -> 1376
13:30:59:163 -> 2061
13:30:59:175 -> 2061
13:30:59:183 -> 2162
13:30:59:193 -> 2782
13:30:59:206 -> 2000
13:30:59:213 -> 2059
13:30:59:224 -> 2011
13:30:59:234 -> 1752
13:30:59:244 -> 2336
13:30:59:255 -> 1852
13:30:59:264 -> 2058
13:30:59:274 -> 2121
13:30:59:284 -> 2243
13:30:59:294 -> 1801
13:30:59:334 -> 1668
13:30:59:338 -> 2087
13:30:59:338 -> 2267
13:30:59:338 -> 1965
13:30:59:344 -> 2054
13:30:59:354 -> 2597
13:30:59:364 -> 2763
13:30:59:374 -> 1706
13:30:59:384 -> 2008
13:30:59:394 -> 1994
13:30:59:404 -> 2131
13:30:59:414 -> 2211
13:30:59:424 -> 2320
13:30:59:435 -> 1928
13:30:59:445 -> 2125
13:30:59:454 -> 1859
13:30:59:465 -> 2475
13:30:59:475 -> 1839
13:30:59:485 -> 2233
13:30:59:495 -> 2091
13:30:59:505 -> 2159
13:30:59:515 -> 1993
13:30:59:525 -> 2225
13:30:59:536 -> 1950
13:30:59:545 -> 2154
13:30:59:555 -> 2038
13:30:59:577 -> 2257
13:30:59:579 -> 2078
13:30:59:585 -> 1880
13:30:59:595 -> 2147
13:30:59:605 -> 2071
13:30:59:615 -> 2001
13:30:59:625 -> 2212
13:30:59:635 -> 1965
13:30:59:645 -> 2109
13:30:59:655 -> 1992
13:30:59:665 -> 2168
13:30:59:675 -> 1971
13:30:59:686 -> 2181
13:30:59:696 -> 1990
13:30:59:706 -> 2164
13:30:59:716 -> 1991
13:30:59:726 -> 2108
13:30:59:736 -> 1994
13:30:59:746 -> 2171
13:30:59:756 -> 1982
13:30:59:766 -> 2146
13:30:59:776 -> 1985
13:30:59:786 -> 2151
13:30:59:801 -> 2002
13:30:59:806 -> 2144
13:30:59:816 -> 2007
13:30:59:826 -> 2155
13:30:59:858 -> 2037
13:30:59:859 -> 2119
13:30:59:859 -> 2003
13:30:59:893 -> 2153
13:30:59:893 -> 2025
13:30:59:893 -> 2136
13:30:59:899 -> 2024
13:30:59:908 -> 2137
13:30:59:937 -> 2023
13:30:59:937 -> 2139
13:30:59:938 -> 2030
13:30:59:949 -> 2153
13:30:59:964 -> 2053
13:30:59:974 -> 2139
13:30:59:977 -> 2033
13:30:59:987 -> 2152
13:30:59:997 -> 2029
13:31:00:008 -> 2143
13:31:00:017 -> 2055
13:31:00:029 -> 2144
13:31:00:041 -> 2033
13:31:00:053 -> 2127
13:31:00:074 -> 2039
13:31:00:074 -> 2140
13:31:00:083 -> 2042
13:31:00:130 -> 2136
13:31:00:130 -> 2042
13:31:00:130 -> 2124
13:31:00:130 -> 2052
13:31:00:130 -> 2135
13:31:00:163 -> 2052
13:31:00:163 -> 2127
13:31:00:163 -> 2063
13:31:00:171 -> 2125
13:31:00:181 -> 2046
13:31:00:188 -> 2124
13:31:00:198 -> 2044
13:31:00:208 -> 2105
13:31:00:218 -> 2067
13:31:00:228 -> 2105
13:31:00:240 -> 2063
13:31:00:248 -> 2101
13:31:00:258 -> 2090
13:31:00:269 -> 2115
13:31:00:278 -> 2087
13:31:00:288 -> 2100
13:31:00:298 -> 2070
13:31:00:309 -> 2097
13:31:00:318 -> 2072
13:31:00:329 -> 2086
13:31:00:338 -> 2077
13:31:00:348 -> 2104
13:31:00:381 -> 2071
13:31:00:385 -> 2100
13:31:00:385 -> 2066
13:31:00:389 -> 2095
13:31:00:400 -> 2076
13:31:00:410 -> 2091
13:31:00:420 -> 2071
13:31:00:429 -> 2095
13:31:00:439 -> 2065
13:31:00:449 -> 2090
13:31:00:459 -> 2075
13:31:00:469 -> 2080
13:31:00:479 -> 2086
13:31:00:489 -> 2059
13:31:00:499 -> 2103
13:31:00:509 -> 2012
13:31:00:519 -> 2116
13:31:00:529 -> 2021
13:31:00:539 -> 2118
13:31:00:549 -> 2022
13:31:00:560 -> 2114
13:31:00:570 -> 2026
13:31:00:580 -> 2101
13:31:00:593 -> 2040
13:31:00:600 -> 2092
13:31:00:610 -> 2063
13:31:00:620 -> 2066
13:31:00:630 -> 2067
13:31:00:641 -> 2063
13:31:00:650 -> 2087
13:31:00:665 -> 2049
13:31:00:671 -> 2090
13:31:00:680 -> 2048
13:31:00:692 -> 2103
13:31:00:700 -> 2055
13:31:00:710 -> 2098
13:31:00:720 -> 2086
13:31:00:731 -> 2112
13:31:00:740 -> 2048
13:31:00:750 -> 2125
13:31:00:760 -> 2063
13:31:00:771 -> 2112
13:31:00:780 -> 2074
13:31:00:790 -> 2120
13:31:00:800 -> 2060
13:31:00:811 -> 2124
13:31:00:821 -> 2053
13:31:00:831 -> 2122
13:31:00:841 -> 2043
13:31:00:851 -> 2090
13:31:00:861 -> 2084
13:31:00:917 -> 2084
13:31:00:918 -> 2090
13:31:00:918 -> 2083
13:31:00:918 -> 2101
13:31:00:918 -> 2088
13:31:00:921 -> 2092
13:31:00:931 -> 2084
13:31:00:941 -> 2084
13:31:00:951 -> 2066
13:31:00:961 -> 2066
13:31:00:971 -> 2095
13:31:00:981 -> 2065
13:31:00:991 -> 2085
13:31:01:001 -> 2050
13:31:01:011 -> 2095
13:31:01:022 -> 2065
13:31:01:032 -> 2088
13:31:01:042 -> 2079
13:31:01:052 -> 2060
13:31:01:062 -> 2102
13:31:01:072 -> 2065
13:31:01:082 -> 2094
13:31:01:092 -> 2058
13:31:01:102 -> 2114
13:31:01:112 -> 2046
13:31:01:122 -> 2111
13:31:01:132 -> 2044
13:31:01:144 -> 2120
13:31:01:152 -> 2028
13:31:01:162 -> 2126
13:31:01:173 -> 2007
13:31:01:182 -> 2140
13:31:01:193 -> 2017
13:31:01:202 -> 2136
13:31:01:212 -> 2004
13:31:01:222 -> 2144
13:31:01:232 -> 1995
13:31:01:243 -> 2143
13:31:01:253 -> 1989
13:31:01:263 -> 2130
13:31:01:273 -> 2007
13:31:01:283 -> 2149
13:31:01:293 -> 1998
13:31:01:303 -> 2126
13:31:01:313 -> 2000
13:31:01:323 -> 2149
13:31:01:333 -> 1994
13:31:01:343 -> 2158
13:31:01:353 -> 2005
13:31:01:366 -> 2145
13:31:01:384 -> 1976
13:31:01:410 -> 2238
13:31:01:410 -> 2106
13:31:01:410 -> 2185
13:31:01:479 -> 2002
13:31:01:479 -> 2276
13:31:01:479 -> 2210
13:31:01:479 -> 2263
13:31:01:479 -> 2199
13:31:01:499 -> 2006
13:31:01:499 -> 2201
13:31:01:499 -> 1378
13:31:01:499 -> 2040
13:31:01:521 -> 2286
13:31:01:521 -> 1567
13:31:01:524 -> 2182
13:31:01:534 -> 1643
13:31:01:550 -> 2177
13:31:01:554 -> 1049
13:31:01:564 -> 2223
13:31:01:576 -> 2072
13:31:01:584 -> 2182
13:31:01:594 -> 1883
13:31:01:604 -> 1247
13:31:01:614 -> 2161
13:31:01:624 -> 2222
13:31:01:634 -> 1819
13:31:01:644 -> 2372
13:31:01:654 -> 2028
13:31:01:665 -> 1947
13:31:01:675 -> 2271
13:31:01:685 -> 2342
13:31:01:695 -> 1913
13:31:01:705 -> 1723
13:31:01:715 -> 1985
13:31:01:725 -> 1567
13:31:01:735 -> 1904
13:31:01:745 -> 2206
13:31:01:755 -> 1894
13:31:01:765 -> 2242
13:31:01:784 -> 2074
13:31:01:790 -> 2301
13:31:01:795 -> 1948
13:31:01:805 -> 1995
13:31:01:816 -> 1415
13:31:01:825 -> 2186
13:31:01:835 -> 2102
13:31:01:846 -> 1613
13:31:01:855 -> 2004
13:31:01:865 -> 2200
13:31:01:875 -> 2103
13:31:01:885 -> 1990
13:31:01:895 -> 2141
13:31:01:906 -> 2595
13:31:01:916 -> 2244
13:31:01:926 -> 2340
13:31:01:936 -> 1975
13:31:01:946 -> 2198
13:31:01:985 -> 1793
13:31:01:986 -> 2274
13:31:01:986 -> 2250
13:31:01:986 -> 2083
13:31:01:996 -> 2027
13:31:02:016 -> 2341
13:31:02:018 -> 1982
13:31:02:026 -> 2074
13:31:02:036 -> 2133
13:31:02:046 -> 2279
13:31:02:057 -> 2095
13:31:02:068 -> 2300
13:31:02:076 -> 1919
13:31:02:087 -> 2000
13:31:02:097 -> 2015
13:31:02:110 -> 2167
13:31:02:117 -> 1790
13:31:02:127 -> 1874
13:31:02:137 -> 2359
13:31:02:147 -> 2035
13:31:02:157 -> 2039
13:31:02:167 -> 2043
13:31:02:177 -> 2046
13:31:02:187 -> 2289
13:31:02:197 -> 2086
13:31:02:207 -> 2097
13:31:02:217 -> 1273
13:31:02:231 -> 2164
13:31:02:237 -> 2119
13:31:02:249 -> 2292
13:31:02:257 -> 1891
13:31:02:267 -> 2126
13:31:02:277 -> 2132
13:31:02:287 -> 2005
13:31:02:298 -> 1540
13:31:02:309 -> 2280
13:31:02:317 -> 2213
13:31:02:327 -> 2225
13:31:02:337 -> 2170
13:31:02:347 -> 2334
13:31:02:358 -> 1983
13:31:02:368 -> 2047
13:31:02:378 -> 2030
13:31:02:388 -> 1698
13:31:02:398 -> 1898
13:31:02:408 -> 2399
13:31:02:418 -> 2086
13:31:02:428 -> 2289
13:31:02:438 -> 1932
13:31:02:448 -> 2155
13:31:02:464 -> 1901
13:31:02:468 -> 2186
13:31:02:478 -> 2015
13:31:02:521 -> 2219
13:31:02:532 -> 2017
13:31:02:532 -> 2147
13:31:02:532 -> 1990
13:31:02:532 -> 2113
13:31:02:538 -> 2098
13:31:02:548 -> 2031
13:31:02:558 -> 2092
13:31:02:568 -> 2015
13:31:02:579 -> 2027
13:31:02:588 -> 2048
13:31:02:599 -> 2162
13:31:02:609 -> 1992
13:31:02:619 -> 2012
13:31:02:629 -> 1777
13:31:02:639 -> 2117
13:31:02:649 -> 2158
13:31:02:659 -> 2176
13:31:02:669 -> 2320
13:31:02:679 -> 2193
13:31:02:703 -> 1988
13:31:02:705 -> 2111
13:31:02:711 -> 2046
13:31:02:719 -> 2148
13:31:02:729 -> 2196
13:31:02:739 -> 2173
13:31:02:749 -> 2049
13:31:02:759 -> 2103
13:31:02:769 -> 2196
13:31:02:780 -> 1994
13:31:02:790 -> 2012
13:31:02:799 -> 2031
13:31:02:810 -> 2160
13:31:02:820 -> 2041
13:31:02:855 -> 2165
13:31:02:857 -> 2080
13:31:02:857 -> 2164
13:31:02:894 -> 2007
13:31:02:894 -> 2107
13:31:02:894 -> 2070
13:31:02:894 -> 2139
13:31:02:900 -> 1948
13:31:02:910 -> 2188
13:31:02:927 -> 1921
13:31:02:930 -> 2053
13:31:02:941 -> 2028
13:31:02:950 -> 2103
13:31:02:960 -> 2096
13:31:02:971 -> 2004
13:31:02:985 -> 2025
13:31:02:991 -> 2066
13:31:03:001 -> 2078
13:31:03:014 -> 2085
13:31:03:021 -> 2034
13:31:03:046 -> 2041
13:31:03:048 -> 2099
13:31:03:051 -> 2005
13:31:03:061 -> 2042
13:31:03:071 -> 2015
13:31:03:081 -> 2005
13:31:03:092 -> 2040
13:31:03:101 -> 2035
13:31:03:111 -> 2062
13:31:03:121 -> 2131
13:31:03:131 -> 1918
13:31:03:141 -> 2165
13:31:03:151 -> 2210
13:31:03:161 -> 2005
13:31:03:171 -> 1996
13:31:03:181 -> 2052
13:31:03:193 -> 2014
13:31:03:202 -> 2164
13:31:03:213 -> 1970
13:31:03:221 -> 2139
13:31:03:233 -> 2095
13:31:03:242 -> 2208
13:31:03:258 -> 1722
13:31:03:262 -> 1941
13:31:03:272 -> 2124
13:31:03:284 -> 2233
13:31:03:295 -> 1975
13:31:03:302 -> 2217
13:31:03:312 -> 2032
13:31:03:322 -> 2154
13:31:03:332 -> 1983
13:31:03:342 -> 1800
13:31:03:352 -> 2046
13:31:03:362 -> 2262
13:31:03:372 -> 1970
13:31:03:382 -> 2157
13:31:03:392 -> 1940
13:31:03:402 -> 2176
13:31:03:412 -> 1929
13:31:03:423 -> 2188
13:31:03:432 -> 2057
13:31:03:443 -> 2159
13:31:03:453 -> 1997
13:31:03:470 -> 2198
13:31:03:480 -> 1888
13:31:03:483 -> 2170
13:31:03:493 -> 1944
13:31:03:503 -> 2231
13:31:03:513 -> 1952
13:31:03:523 -> 2206
13:31:03:533 -> 1971
13:31:03:543 -> 2179
13:31:03:576 -> 1943
13:31:03:576 -> 2287
13:31:03:576 -> 1894
13:31:03:583 -> 2235
13:31:03:593 -> 1945
13:31:03:603 -> 2214
13:31:03:613 -> 1968
13:31:03:624 -> 2216
13:31:03:633 -> 1955
13:31:03:643 -> 2220
13:31:03:658 -> 1952
13:31:03:663 -> 2218
13:31:03:674 -> 1917
13:31:03:684 -> 2220
13:31:03:701 -> 1986
13:31:03:704 -> 2200
13:31:03:714 -> 1939
13:31:03:724 -> 2224
13:31:03:734 -> 1948
13:31:03:744 -> 2191
13:31:03:754 -> 1997
13:31:03:764 -> 2201
13:31:03:774 -> 1952
13:31:03:784 -> 2178
13:31:03:794 -> 1934
13:31:03:804 -> 2179
13:31:03:814 -> 1945
13:31:03:824 -> 2138
13:31:03:834 -> 1944
13:31:03:844 -> 2194
13:31:03:854 -> 1969
13:31:03:864 -> 2166
13:31:03:874 -> 1961
13:31:03:884 -> 2159
13:31:03:894 -> 1964
13:31:03:905 -> 2186
13:31:03:915 -> 1965
13:31:03:925 -> 2160
13:31:03:935 -> 1961
13:31:03:945 -> 2160
13:31:03:959 -> 1966
13:31:03:965 -> 2166
13:31:03:975 -> 1984
13:31:03:985 -> 2157
13:31:03:996 -> 1980
13:31:04:005 -> 2162
13:31:04:015 -> 1959
13:31:04:025 -> 2154
13:31:04:035 -> 2000
13:31:04:045 -> 2156
13:31:04:055 -> 2007
13:31:04:065 -> 2151
13:31:04:101 -> 2013
13:31:04:102 -> 2154
13:31:04:102 -> 2024
13:31:04:105 -> 2152
13:31:04:116 -> 2030
13:31:04:126 -> 2146
13:31:04:136 -> 2042
13:31:04:146 -> 2173
13:31:04:156 -> 2043
13:31:04:166 -> 2137
13:31:04:176 -> 2058
13:31:04:186 -> 2144
13:31:04:199 -> 2049
13:31:04:206 -> 2142
13:31:04:217 -> 2059
13:31:04:226 -> 2122
13:31:04:236 -> 2040
13:31:04:246 -> 2126
13:31:04:256 -> 2073
13:31:04:266 -> 2137
13:31:04:277 -> 2051
13:31:04:291 -> 2137
13:31:04:298 -> 2060
13:31:04:308 -> 2128
13:31:04:316 -> 2062
13:31:04:326 -> 2142
13:31:04:336 -> 2053
13:31:04:346 -> 2140
13:31:04:357 -> 2051
13:31:04:367 -> 2127
13:31:04:377 -> 2065
13:31:04:387 -> 2110
13:31:04:397 -> 2064
13:31:04:407 -> 2109
13:31:04:417 -> 2062
13:31:04:428 -> 2108
13:31:04:437 -> 2077
13:31:04:447 -> 2092
13:31:04:457 -> 2053
13:31:04:467 -> 2083
13:31:04:477 -> 2066
13:31:04:487 -> 2074
13:31:04:497 -> 2037
13:31:04:508 -> 2079
13:31:04:517 -> 2040
13:31:04:528 -> 2068
13:31:04:539 -> 2044
13:31:04:547 -> 2072
13:31:04:558 -> 2044
13:31:04:567 -> 2060
13:31:04:578 -> 2058
13:31:04:588 -> 2060
13:31:04:598 -> 2055
13:31:04:635 -> 2065
13:31:04:636 -> 2059
13:31:04:636 -> 2074
13:31:04:638 -> 2068
13:31:04:649 -> 2081
13:31:04:658 -> 2074
13:31:04:668 -> 2068
13:31:04:678 -> 2064
13:31:04:688 -> 2074
13:31:04:721 -> 2076
13:31:04:733 -> 2034
13:31:04:733 -> 2109
13:31:04:733 -> 2027
13:31:04:759 -> 2125
13:31:04:759 -> 2000
13:31:04:759 -> 2126
13:31:04:807 -> 2012
13:31:04:807 -> 2120
13:31:04:807 -> 2030
13:31:04:807 -> 2127
13:31:04:818 -> 2047
13:31:04:824 -> 2124
13:31:04:835 -> 2056
13:31:04:839 -> 2098
13:31:04:849 -> 2058
13:31:04:859 -> 2077
13:31:04:869 -> 2100
13:31:04:879 -> 2082
13:31:04:889 -> 2117
13:31:04:899 -> 2051
13:31:04:909 -> 2119
13:31:04:919 -> 2050
13:31:04:929 -> 2112
13:31:04:939 -> 2064
13:31:04:949 -> 2125
13:31:04:959 -> 2045
13:31:04:969 -> 2124
13:31:04:979 -> 2019
13:31:04:989 -> 2100
13:31:04:999 -> 2048
13:31:05:009 -> 2112
13:31:05:026 -> 2059
13:31:05:030 -> 2143
13:31:05:040 -> 2043
13:31:05:050 -> 2139
13:31:05:061 -> 2037
13:31:05:070 -> 2125
13:31:05:080 -> 2067
13:31:05:090 -> 2108
13:31:05:100 -> 2090
13:31:05:110 -> 2069
13:31:05:120 -> 2089
13:31:05:130 -> 2083
13:31:05:159 -> 2075
13:31:05:159 -> 2078
13:31:05:161 -> 2080
13:31:05:171 -> 2096
13:31:05:180 -> 2085
13:31:05:190 -> 2083
13:31:05:200 -> 2066
13:31:05:210 -> 2092
13:31:05:221 -> 2067
13:31:05:231 -> 2092
13:31:05:241 -> 2040
13:31:05:251 -> 2101
13:31:05:265 -> 2083
13:31:05:271 -> 2094
13:31:05:281 -> 2081
13:31:05:291 -> 2081
13:31:05:301 -> 2108
13:31:05:311 -> 2041
13:31:05:321 -> 2102
13:31:05:331 -> 2035
13:31:05:341 -> 2121
13:31:05:351 -> 2100
13:31:05:362 -> 2131
13:31:05:372 -> 2012
13:31:05:382 -> 2081
13:31:05:391 -> 2030
13:31:05:401 -> 2129
13:31:05:411 -> 2009
13:31:05:421 -> 2140
13:31:05:431 -> 1986
13:31:05:441 -> 2154
13:31:05:451 -> 2043
13:31:05:461 -> 2139
13:31:05:471 -> 2008
13:31:05:482 -> 2128
13:31:05:492 -> 1903
13:31:05:502 -> 2105
13:31:05:512 -> 2091
13:31:05:522 -> 2101
13:31:05:535 -> 2025
13:31:05:543 -> 2167
13:31:05:552 -> 2018
13:31:05:562 -> 2191
13:31:05:572 -> 2212
13:31:05:582 -> 2176
13:31:05:592 -> 2092
13:31:05:602 -> 2178
13:31:05:612 -> 2008
13:31:05:622 -> 2167
13:31:05:632 -> 2055
13:31:05:642 -> 2295
13:31:05:652 -> 1978
13:31:05:679 -> 2337
13:31:05:680 -> 2000
13:31:05:682 -> 2187
13:31:05:692 -> 1939
13:31:05:702 -> 2228
13:31:05:713 -> 1959
13:31:05:723 -> 2444
13:31:05:733 -> 1999
13:31:05:749 -> 2148
13:31:05:753 -> 1777
13:31:05:763 -> 2197
13:31:05:774 -> 2351
13:31:05:783 -> 2221
13:31:05:793 -> 2071
13:31:05:803 -> 2376
13:31:05:813 -> 2060
13:31:05:826 -> 2342
13:31:05:833 -> 2270
13:31:05:843 -> 2444
13:31:05:853 -> 1967
13:31:05:863 -> 2706
13:31:05:873 -> 2072
13:31:05:883 -> 2175
13:31:05:893 -> 2037
13:31:05:907 -> 2073
13:31:05:914 -> 2084
13:31:05:925 -> 1974
13:31:05:934 -> 1964
13:31:05:944 -> 2203
13:31:05:954 -> 2070
13:31:05:964 -> 2263
13:31:05:978 -> 2192
13:31:05:984 -> 2272
13:31:05:994 -> 1906
13:31:06:004 -> 2164
13:31:06:014 -> 1809
13:31:06:024 -> 1997
13:31:06:034 -> 1875
13:31:06:044 -> 2363
13:31:06:054 -> 1907
13:31:06:064 -> 1867
13:31:06:074 -> 1898
13:31:06:084 -> 2190
13:31:06:094 -> 1951
13:31:06:104 -> 2156
13:31:06:115 -> 1983
13:31:06:124 -> 2079
13:31:06:135 -> 2032
13:31:06:147 -> 1798
13:31:06:155 -> 2103
13:31:06:165 -> 1912
13:31:06:175 -> 2073
13:31:06:210 -> 2102
13:31:06:211 -> 1849
13:31:06:211 -> 2219
13:31:06:215 -> 2074
13:31:06:232 -> 2289
13:31:06:237 -> 2053
13:31:06:245 -> 2069
13:31:06:255 -> 2081
13:31:06:271 -> 2159
13:31:06:296 -> 1707
13:31:06:296 -> 1680
13:31:06:296 -> 2136
13:31:06:337 -> 2311
13:31:06:337 -> 2134
13:31:06:337 -> 2571
13:31:06:337 -> 2010
13:31:06:357 -> 2145
13:31:06:357 -> 2057
13:31:06:366 -> 2449
13:31:06:394 -> 2295
13:31:06:394 -> 2273
13:31:06:396 -> 2008
13:31:06:406 -> 2037
13:31:06:416 -> 2395
13:31:06:426 -> 1997
13:31:06:436 -> 2252
13:31:06:446 -> 2631
13:31:06:456 -> 1980
13:31:06:466 -> 2373
13:31:06:476 -> 2019
13:31:06:487 -> 2063
13:31:06:496 -> 2167
13:31:06:507 -> 2202
13:31:06:516 -> 1950
13:31:06:527 -> 2216
13:31:06:536 -> 2171
13:31:06:550 -> 2525
13:31:06:573 -> 2073
13:31:06:573 -> 2123
13:31:06:576 -> 2113
13:31:06:587 -> 2173
13:31:06:597 -> 2010
13:31:06:607 -> 2109
13:31:06:617 -> 2065
13:31:06:627 -> 2138
13:31:06:637 -> 2182
13:31:06:647 -> 2259
13:31:06:658 -> 1328
13:31:06:667 -> 2181
13:31:06:677 -> 2233
13:31:06:687 -> 2065
13:31:06:697 -> 1831
13:31:06:707 -> 2008
13:31:06:745 -> 2042
13:31:06:746 -> 2155
13:31:06:746 -> 2052
13:31:06:749 -> 2131
13:31:06:757 -> 2308
13:31:06:767 -> 2111
13:31:06:778 -> 2032
13:31:06:788 -> 2124
13:31:06:798 -> 2058
13:31:06:808 -> 1713
13:31:06:818 -> 2114
13:31:06:828 -> 1920
13:31:06:838 -> 2183
13:31:06:848 -> 2005
13:31:06:858 -> 2020
13:31:06:868 -> 2003
13:31:06:878 -> 2064
13:31:06:888 -> 1777
13:31:06:898 -> 2217
13:31:06:908 -> 2137
13:31:06:918 -> 2234
13:31:06:928 -> 2043
13:31:06:938 -> 2088
13:31:06:948 -> 1895
13:31:06:958 -> 2043
13:31:06:968 -> 2046
13:31:06:978 -> 1574
13:31:06:988 -> 2132
13:31:06:998 -> 2354
13:31:07:010 -> 2339
13:31:07:018 -> 2003
13:31:07:030 -> 2136
13:31:07:039 -> 2131
13:31:07:049 -> 1938
13:31:07:059 -> 2059
13:31:07:069 -> 2020
13:31:07:079 -> 2066
13:31:07:089 -> 2321
13:31:07:099 -> 2118
13:31:07:109 -> 2087
13:31:07:119 -> 1880
13:31:07:129 -> 2389
13:31:07:139 -> 1849
13:31:07:149 -> 2243
13:31:07:159 -> 2007
13:31:07:170 -> 2219
13:31:07:181 -> 2059
13:31:07:189 -> 2189
13:31:07:199 -> 1898
13:31:07:209 -> 2177
13:31:07:220 -> 1979
13:31:07:229 -> 2054
13:31:07:271 -> 2137
13:31:07:272 -> 2112
13:31:07:272 -> 1901
13:31:07:272 -> 2218
13:31:07:280 -> 1759
13:31:07:290 -> 2100
13:31:07:300 -> 1985
13:31:07:310 -> 2170
13:31:07:320 -> 1763
13:31:07:330 -> 1971
13:31:07:341 -> 2213
13:31:07:350 -> 2054
13:31:07:360 -> 2267
13:31:07:370 -> 2091
13:31:07:381 -> 2169
13:31:07:390 -> 2026
13:31:07:400 -> 1947
13:31:07:410 -> 2176
13:31:07:421 -> 1983
13:31:07:430 -> 2034
13:31:07:441 -> 2073
13:31:07:450 -> 2091
13:31:07:465 -> 2124
13:31:07:471 -> 1957
13:31:07:481 -> 2150
13:31:07:491 -> 2032
13:31:07:501 -> 2146
13:31:07:511 -> 1985
13:31:07:521 -> 2080
13:31:07:531 -> 2031
13:31:07:541 -> 2134
13:31:07:551 -> 2058
13:31:07:561 -> 2125
13:31:07:571 -> 2032
13:31:07:585 -> 2129
13:31:07:594 -> 2032
13:31:07:601 -> 2118
13:31:07:611 -> 1958
13:31:07:622 -> 2138
13:31:07:632 -> 1995
13:31:07:642 -> 2129
13:31:07:651 -> 2012
13:31:07:661 -> 2106
13:31:07:671 -> 2016
13:31:07:682 -> 2143
13:31:07:692 -> 2002
13:31:07:702 -> 2156
13:31:07:712 -> 1981
13:31:07:722 -> 2194
13:31:07:732 -> 1992
13:31:07:749 -> 2204
13:31:07:752 -> 1977
13:31:07:764 -> 2197
13:31:07:796 -> 1978
13:31:07:798 -> 2198
13:31:07:798 -> 1955
13:31:07:802 -> 2220
13:31:07:812 -> 1984
13:31:07:824 -> 2223
13:31:07:832 -> 1974
13:31:07:842 -> 2237
13:31:07:852 -> 1974
13:31:07:862 -> 2241
13:31:07:873 -> 1968
13:31:07:883 -> 2267
13:31:07:893 -> 1976
13:31:07:903 -> 2230
13:31:07:913 -> 1962
13:31:07:923 -> 2248
13:31:07:933 -> 1953
13:31:07:943 -> 2241
13:31:07:953 -> 1959
13:31:07:963 -> 2237
13:31:07:981 -> 1955
13:31:07:983 -> 2235
13:31:07:993 -> 1952
13:31:08:003 -> 2216
13:31:08:013 -> 1941
13:31:08:024 -> 2216
13:31:08:037 -> 1930
13:31:08:043 -> 2196
13:31:08:053 -> 1944
13:31:08:064 -> 2209
13:31:08:076 -> 1936
13:31:08:111 -> 2190
13:31:08:113 -> 1926
13:31:08:113 -> 2180
13:31:08:142 -> 1937
13:31:08:142 -> 2186
13:31:08:142 -> 1928
13:31:08:146 -> 2180
13:31:08:154 -> 1936
13:31:08:164 -> 2160
13:31:08:174 -> 1923
13:31:08:184 -> 2141
13:31:08:194 -> 1942
13:31:08:204 -> 2148
13:31:08:214 -> 1923
13:31:08:225 -> 2160
13:31:08:234 -> 1939
13:31:08:247 -> 2138
13:31:08:254 -> 1943
13:31:08:283 -> 2122
13:31:08:337 -> 1947
13:31:08:337 -> 2131
13:31:08:337 -> 1961
13:31:08:337 -> 2124
13:31:08:343 -> 1968
13:31:08:343 -> 2140
13:31:08:343 -> 1972
13:31:08:346 -> 2131
13:31:08:364 -> 1979
13:31:08:366 -> 2130
13:31:08:375 -> 1991
13:31:08:385 -> 2129
13:31:08:395 -> 2008
13:31:08:405 -> 2122
13:31:08:415 -> 2026
13:31:08:425 -> 2129
13:31:08:435 -> 2019
13:31:08:445 -> 2124
13:31:08:455 -> 2024
13:31:08:465 -> 2126
13:31:08:475 -> 2027
13:31:08:488 -> 2129
13:31:08:495 -> 2056
13:31:08:505 -> 2129
13:31:08:515 -> 2041
13:31:08:525 -> 2138
13:31:08:535 -> 2049
13:31:08:546 -> 2127
13:31:08:555 -> 2058
13:31:08:566 -> 2149
13:31:08:584 -> 2060
13:31:08:596 -> 2141
13:31:08:598 -> 2059
13:31:08:606 -> 2133
13:31:08:616 -> 2067
13:31:08:626 -> 2132
13:31:08:636 -> 2077
13:31:08:646 -> 2140
13:31:08:656 -> 2074
13:31:08:666 -> 2127
13:31:08:676 -> 2091
13:31:08:686 -> 2109
13:31:08:697 -> 2077
13:31:08:706 -> 2109
13:31:08:716 -> 2089
13:31:08:726 -> 2089
13:31:08:736 -> 2084
13:31:08:746 -> 2097
13:31:08:757 -> 2072
13:31:08:766 -> 2090
13:31:08:776 -> 2071
13:31:08:798 -> 2085
13:31:08:799 -> 2081
13:31:08:807 -> 2091
13:31:08:819 -> 2080
13:31:08:827 -> 2071
13:31:08:861 -> 2079
13:31:08:863 -> 2076
13:31:08:863 -> 2065
13:31:08:867 -> 2068
13:31:08:877 -> 2060
13:31:08:887 -> 2076
13:31:08:897 -> 2082
13:31:08:908 -> 2087
13:31:08:917 -> 2068
13:31:08:929 -> 2084
13:31:08:937 -> 2098
13:31:08:947 -> 2063
13:31:08:957 -> 2121
13:31:08:967 -> 2039
13:31:08:977 -> 2207
13:31:08:988 -> 2035
13:31:08:997 -> 2141
13:31:09:007 -> 2031
13:31:09:018 -> 2147
13:31:09:034 -> 2039
13:31:09:039 -> 2119
13:31:09:048 -> 2042
13:31:09:058 -> 2114
13:31:09:068 -> 2048
13:31:09:078 -> 2099
13:31:09:088 -> 2062
13:31:09:098 -> 2088
13:31:09:110 -> 2086
13:31:09:120 -> 2062
13:31:09:128 -> 2107
13:31:09:138 -> 2049
13:31:09:149 -> 2110
13:31:09:159 -> 2062
13:31:09:168 -> 2118
13:31:09:178 -> 2066
13:31:09:188 -> 2132
13:31:09:198 -> 2033
13:31:09:209 -> 2121
13:31:09:219 -> 2067
13:31:09:228 -> 2113
13:31:09:238 -> 2048
13:31:09:249 -> 2131
13:31:09:263 -> 2063
13:31:09:269 -> 2134
13:31:09:279 -> 2061
13:31:09:289 -> 2121
13:31:09:299 -> 2085
13:31:09:309 -> 2134
13:31:09:319 -> 2122
13:31:09:329 -> 2036
13:31:09:339 -> 2114
13:31:09:349 -> 2101
13:31:09:360 -> 2089
13:31:09:390 -> 2040
13:31:09:391 -> 2106
13:31:09:391 -> 1976
13:31:09:399 -> 2074
13:31:09:409 -> 2124
13:31:09:419 -> 2029
13:31:09:430 -> 2116
13:31:09:440 -> 1995
13:31:09:449 -> 2188
13:31:09:464 -> 1939
13:31:09:470 -> 2158
13:31:09:481 -> 2033
13:31:09:490 -> 2086
13:31:09:500 -> 1856
13:31:09:510 -> 2285
13:31:09:520 -> 2072
13:31:09:530 -> 2163
13:31:09:540 -> 2024
13:31:09:550 -> 1844
13:31:09:560 -> 2109
13:31:09:570 -> 2116
13:31:09:580 -> 2053
13:31:09:590 -> 1954
13:31:09:632 -> 2298
13:31:09:660 -> 1857
13:31:09:660 -> 2466
13:31:09:660 -> 1765
13:31:09:660 -> 2106
13:31:09:660 -> 1922
13:31:09:680 -> 2249
13:31:09:680 -> 2049
13:31:09:680 -> 2245
13:31:09:704 -> 1413
13:31:09:704 -> 2265
13:31:09:713 -> 1942
13:31:09:726 -> 2074
13:31:09:741 -> 1964
13:31:09:741 -> 2048
13:31:09:751 -> 1924
13:31:09:761 -> 2358
13:31:09:771 -> 483
13:31:09:784 -> 2125
13:31:09:791 -> 1897
13:31:09:801 -> 2152
13:31:09:811 -> 2092
13:31:09:821 -> 1797
13:31:09:831 -> 217
13:31:09:841 -> 2237
13:31:09:851 -> 1815
13:31:09:861 -> 2162
13:31:09:871 -> 2013
13:31:09:881 -> 2169
13:31:09:916 -> 2224
13:31:09:917 -> 1999
13:31:09:917 -> 1960
13:31:09:922 -> 2397
13:31:09:932 -> 2012
13:31:09:942 -> 1917
13:31:09:952 -> 1709
13:31:09:962 -> 2173
13:31:09:972 -> 2051
13:31:09:982 -> 2095
13:31:09:994 -> 2009
13:31:10:002 -> 1085
13:31:10:012 -> 2049
13:31:10:023 -> 2286
13:31:10:032 -> 2221
13:31:10:042 -> 2197
13:31:10:052 -> 1875
13:31:10:062 -> 1884
13:31:10:072 -> 1934
13:31:10:082 -> 2257
13:31:10:092 -> 1819
13:31:10:102 -> 2235
13:31:10:112 -> 2061
13:31:10:123 -> 1983
13:31:10:133 -> 2032
13:31:10:143 -> 2123
13:31:10:153 -> 2277
13:31:10:163 -> 2364
13:31:10:174 -> 2301
13:31:10:184 -> 2211
13:31:10:199 -> 1979
13:31:10:206 -> 1431
13:31:10:213 -> 2151
13:31:10:224 -> 1774
13:31:10:233 -> 2068
13:31:10:243 -> 2171
13:31:10:253 -> 2216
13:31:10:270 -> 2143
13:31:10:273 -> 2206
13:31:10:283 -> 2413
13:31:10:293 -> 1753
13:31:10:303 -> 2211
13:31:10:314 -> 1826
13:31:10:324 -> 2300
13:31:10:333 -> 2153
13:31:10:344 -> 2463
13:31:10:354 -> 2126
13:31:10:364 -> 1897
13:31:10:374 -> 2013
13:31:10:384 -> 2077
13:31:10:394 -> 1596
13:31:10:404 -> 2109
13:31:10:414 -> 2022
13:31:10:466 -> 2196
13:31:10:468 -> 2202
13:31:10:468 -> 2207
13:31:10:468 -> 2327
13:31:10:468 -> 2189
13:31:10:475 -> 1820
13:31:10:484 -> 2127
13:31:10:496 -> 2086
13:31:10:504 -> 2121
13:31:10:515 -> 1887
13:31:10:524 -> 2532
13:31:10:539 -> 2351
13:31:10:546 -> 2079
13:31:10:555 -> 1794
13:31:10:566 -> 2230
13:31:10:575 -> 1892
13:31:10:585 -> 1376
13:31:10:595 -> 1837
13:31:10:605 -> 2118
13:31:10:615 -> 1809
13:31:10:627 -> 2291
13:31:10:638 -> 2518
13:31:10:654 -> 2137
13:31:10:663 -> 1992
13:31:10:667 -> 2224
13:31:10:675 -> 2206
13:31:10:685 -> 2294
13:31:10:695 -> 2347
13:31:10:705 -> 1275
13:31:10:715 -> 2291
13:31:10:726 -> 2209
13:31:10:735 -> 1857
13:31:10:745 -> 2103
13:31:10:755 -> 1728
13:31:10:766 -> 2046
13:31:10:775 -> 2359
13:31:10:786 -> 2450
13:31:10:796 -> 1987
13:31:10:814 -> 2331
13:31:10:816 -> 2199
13:31:10:826 -> 2136
13:31:10:836 -> 2254
13:31:10:846 -> 2079
13:31:10:856 -> 1707
13:31:10:866 -> 2023
13:31:10:876 -> 2117
13:31:10:886 -> 2166
13:31:10:896 -> 1885
13:31:10:906 -> 2060
13:31:10:916 -> 2081
13:31:10:926 -> 2081
13:31:10:937 -> 2206
13:31:10:946 -> 2410
13:31:10:956 -> 2343
13:31:10:987 -> 2309
13:31:10:988 -> 2153
13:31:10:988 -> 2146
13:31:10:996 -> 2162
13:31:11:007 -> 2023
13:31:11:017 -> 2147
13:31:11:031 -> 2149
13:31:11:037 -> 1762
13:31:11:048 -> 2151
13:31:11:057 -> 2761
13:31:11:067 -> 1919
13:31:11:077 -> 2133
13:31:11:087 -> 1697
13:31:11:099 -> 2242
13:31:11:108 -> 2094
13:31:11:117 -> 2337
13:31:11:127 -> 1872
13:31:11:137 -> 1910
13:31:11:147 -> 2008
13:31:11:157 -> 2081
13:31:11:167 -> 2167
13:31:11:177 -> 2289
13:31:11:187 -> 994
13:31:11:197 -> 2170
13:31:11:207 -> 2036
13:31:11:217 -> 2092
13:31:11:228 -> 2203
13:31:11:248 -> 2057
13:31:11:257 -> 2304
13:31:11:261 -> 2170
13:31:11:268 -> 2007
13:31:11:278 -> 1894
13:31:11:288 -> 2031
13:31:11:298 -> 1925
13:31:11:308 -> 2086
13:31:11:318 -> 2147
13:31:11:328 -> 2065
13:31:11:338 -> 2119
13:31:11:348 -> 2096
13:31:11:365 -> 1973
13:31:11:387 -> 2066
13:31:11:387 -> 2022
13:31:11:398 -> 2252
13:31:11:417 -> 2035
13:31:11:417 -> 2036
13:31:11:429 -> 2230
13:31:11:429 -> 2134
13:31:11:439 -> 2068
13:31:11:449 -> 2047
13:31:11:468 -> 2109
13:31:11:476 -> 2115
13:31:11:484 -> 2119
13:31:11:519 -> 2058
13:31:11:531 -> 2087
13:31:11:531 -> 2100
13:31:11:531 -> 2074
13:31:11:531 -> 2097
13:31:11:539 -> 2153
13:31:11:554 -> 2078
13:31:11:559 -> 2086
13:31:11:569 -> 2113
13:31:11:579 -> 2069
13:31:11:590 -> 2100
13:31:11:599 -> 2090
13:31:11:609 -> 2067
13:31:11:619 -> 2114
13:31:11:629 -> 2053
13:31:11:640 -> 2079
13:31:11:649 -> 2049
13:31:11:659 -> 2132
13:31:11:670 -> 2041
13:31:11:680 -> 2122
13:31:11:692 -> 2020
13:31:11:700 -> 2104
13:31:11:710 -> 2042
13:31:11:720 -> 2097
13:31:11:730 -> 2047
13:31:11:741 -> 2104
13:31:11:750 -> 2039
13:31:11:761 -> 2118
13:31:11:770 -> 2015
13:31:11:780 -> 2117
13:31:11:790 -> 2025
13:31:11:800 -> 2133
13:31:11:816 -> 2009
13:31:11:822 -> 2125
13:31:11:830 -> 2002
13:31:11:840 -> 2107
13:31:11:850 -> 2014
13:31:11:860 -> 2068
13:31:11:871 -> 2013
13:31:11:881 -> 2140
13:31:11:891 -> 1997
13:31:11:901 -> 2141
13:31:11:911 -> 1990
13:31:11:921 -> 2150
13:31:11:931 -> 1976
13:31:11:941 -> 2144
13:31:11:951 -> 1977
13:31:11:961 -> 2187
13:31:11:971 -> 1965
13:31:11:981 -> 2196
13:31:11:998 -> 1965
13:31:12:001 -> 2211
13:31:12:011 -> 1949
13:31:12:037 -> 2279
13:31:12:038 -> 1970
13:31:12:041 -> 2231
13:31:12:051 -> 1926
13:31:12:061 -> 2219
13:31:12:071 -> 1946
13:31:12:082 -> 2214
13:31:12:092 -> 1951
13:31:12:102 -> 2218
13:31:12:112 -> 1957
13:31:12:122 -> 2241
13:31:12:132 -> 1959
13:31:12:142 -> 2192
13:31:12:152 -> 1953
13:31:12:162 -> 2221
13:31:12:172 -> 1947
13:31:12:182 -> 2208
13:31:12:192 -> 1921
13:31:12:202 -> 2250
13:31:12:212 -> 1955
13:31:12:222 -> 2217
13:31:12:232 -> 1969
13:31:12:247 -> 2242
13:31:12:252 -> 1942
13:31:12:265 -> 2203
13:31:12:272 -> 1957
13:31:12:282 -> 2195
13:31:12:292 -> 1947
13:31:12:302 -> 2198
13:31:12:312 -> 1933
13:31:12:322 -> 2179
13:31:12:333 -> 1947
13:31:12:343 -> 2190
13:31:12:353 -> 1980
13:31:12:363 -> 2181
13:31:12:373 -> 1971
13:31:12:383 -> 2187
13:31:12:393 -> 1954
13:31:12:403 -> 2197
13:31:12:413 -> 1960
13:31:12:423 -> 2162
13:31:12:433 -> 1965
13:31:12:443 -> 2177
13:31:12:453 -> 1960
13:31:12:463 -> 2165
13:31:12:473 -> 1976
13:31:12:483 -> 2171
13:31:12:498 -> 1979
13:31:12:503 -> 2160
13:31:12:515 -> 1972
13:31:12:523 -> 2133
13:31:12:533 -> 1987
13:31:12:568 -> 2157
13:31:12:570 -> 1991
13:31:12:570 -> 2141
13:31:12:574 -> 1983
13:31:12:584 -> 2135
13:31:12:594 -> 1995
13:31:12:604 -> 2138
13:31:12:614 -> 2007
13:31:12:624 -> 2135
13:31:12:634 -> 2016
13:31:12:644 -> 2142
13:31:12:654 -> 2020
13:31:12:664 -> 2144
13:31:12:674 -> 2035
13:31:12:684 -> 2142
13:31:12:694 -> 2030
13:31:12:704 -> 2135
13:31:12:715 -> 2032
13:31:12:731 -> 2141
13:31:12:758 -> 2032
13:31:12:758 -> 2137
13:31:12:758 -> 2078
13:31:12:779 -> 2130
13:31:12:785 -> 2056
13:31:12:785 -> 2130
13:31:12:795 -> 2050
13:31:12:810 -> 2124
13:31:12:815 -> 2052
13:31:12:826 -> 2113
13:31:12:835 -> 2063
13:31:12:854 -> 2110
13:31:12:860 -> 2067
13:31:12:865 -> 2107
13:31:12:883 -> 2057
13:31:12:909 -> 2112
13:31:12:909 -> 2063
13:31:12:909 -> 2112
13:31:12:943 -> 2062
13:31:12:943 -> 2110
13:31:12:943 -> 2067
13:31:12:945 -> 2122
13:31:12:955 -> 2065
13:31:12:965 -> 2093
13:31:12:980 -> 2042
13:31:12:985 -> 2099
13:31:12:996 -> 2065
13:31:13:006 -> 2093
13:31:13:016 -> 2060
13:31:13:026 -> 2088
13:31:13:036 -> 2066
13:31:13:046 -> 2082
13:31:13:056 -> 2090
13:31:13:066 -> 2060
13:31:13:091 -> 2088
13:31:13:093 -> 2078
13:31:13:096 -> 2063
13:31:13:107 -> 2083
13:31:13:117 -> 2077
13:31:13:126 -> 2091
13:31:13:143 -> 2087
13:31:13:146 -> 2077
13:31:13:156 -> 2071
13:31:13:166 -> 2066
13:31:13:176 -> 2114
13:31:13:187 -> 2025
13:31:13:196 -> 2130
13:31:13:207 -> 2021
13:31:13:217 -> 2145
13:31:13:227 -> 2001
13:31:13:237 -> 2136
13:31:13:247 -> 2009
13:31:13:257 -> 2139
13:31:13:267 -> 2029
13:31:13:277 -> 2118
13:31:13:287 -> 2038
13:31:13:297 -> 2113
13:31:13:307 -> 2062
13:31:13:317 -> 2082
13:31:13:327 -> 2077
13:31:13:337 -> 2071
13:31:13:347 -> 2097
13:31:13:357 -> 2061
13:31:13:367 -> 2107
13:31:13:377 -> 2091
13:31:13:391 -> 2104
13:31:13:399 -> 2068
13:31:13:407 -> 2118
13:31:13:427 -> 2051
13:31:13:428 -> 2114
13:31:13:441 -> 2053
13:31:13:454 -> 2116
13:31:13:458 -> 2150
13:31:13:469 -> 2092
13:31:13:478 -> 2064
13:31:13:491 -> 2119
13:31:13:498 -> 2061
13:31:13:508 -> 2212
13:31:13:520 -> 2052
13:31:13:528 -> 2055
13:31:13:538 -> 2092
13:31:13:550 -> 2079
13:31:13:558 -> 2183
13:31:13:568 -> 2225
13:31:13:578 -> 2191
13:31:13:588 -> 2150
13:31:13:624 -> 1777
13:31:13:624 -> 2196
13:31:13:624 -> 2224
13:31:13:629 -> 2229
13:31:13:639 -> 1856
13:31:13:648 -> 2124
13:31:13:662 -> 1986
13:31:13:669 -> 2102
13:31:13:681 -> 2098
13:31:13:689 -> 2097
13:31:13:699 -> 1799
13:31:13:710 -> 2005
13:31:13:719 -> 2102
13:31:13:729 -> 1993
13:31:13:741 -> 2085
13:31:13:749 -> 2134
13:31:13:759 -> 2124
13:31:13:769 -> 2022
13:31:13:779 -> 2309
13:31:13:790 -> 2096
13:31:13:799 -> 2134
13:31:13:809 -> 1997
13:31:13:819 -> 2417
13:31:13:829 -> 2163
13:31:13:839 -> 2465
13:31:13:850 -> 2113
13:31:13:860 -> 2185
13:31:13:871 -> 2160
13:31:13:880 -> 1745
13:31:13:890 -> 2319
13:31:13:900 -> 1944
13:31:13:910 -> 2041
13:31:13:920 -> 2062
13:31:13:930 -> 2630
13:31:13:950 -> 2095
13:31:13:951 -> 1992
13:31:13:964 -> 2008
13:31:13:971 -> 1268
13:31:13:981 -> 2220
13:31:13:992 -> 1862
13:31:14:000 -> 1959
13:31:14:010 -> 2212
13:31:14:020 -> 2357
13:31:14:030 -> 2036
13:31:14:040 -> 2130
13:31:14:050 -> 2077
13:31:14:060 -> 2111
13:31:14:070 -> 2335
13:31:14:081 -> 2187
13:31:14:091 -> 1950
13:31:14:101 -> 1205
13:31:14:111 -> 2542
13:31:14:121 -> 2375
13:31:14:154 -> 1966
13:31:14:155 -> 2154
13:31:14:155 -> 2002
13:31:14:161 -> 2121
13:31:14:173 -> 2206
13:31:14:182 -> 2267
13:31:14:191 -> 2072
13:31:14:201 -> 1956
13:31:14:212 -> 2062
13:31:14:221 -> 2320
13:31:14:231 -> 1553
13:31:14:241 -> 2160
13:31:14:252 -> 1863
13:31:14:261 -> 2340
13:31:14:272 -> 2242
13:31:14:281 -> 2194
13:31:14:292 -> 1969
13:31:14:302 -> 1750
13:31:14:338 -> 1849
13:31:14:338 -> 2184
13:31:14:338 -> 2048
13:31:14:368 -> 2583
13:31:14:368 -> 1916
13:31:14:368 -> 2188
13:31:14:372 -> 2067
13:31:14:399 -> 2422
13:31:14:399 -> 2103
13:31:14:414 -> 2183
13:31:14:414 -> 1917
13:31:14:422 -> 2188
13:31:14:432 -> 2032
13:31:14:443 -> 2283
13:31:14:462 -> 2046
13:31:14:465 -> 2330
13:31:14:472 -> 2137
13:31:14:482 -> 2286
13:31:14:501 -> 1958
13:31:14:502 -> 2147
13:31:14:513 -> 2112
13:31:14:523 -> 2301
13:31:14:534 -> 1953
13:31:14:543 -> 2057
13:31:14:553 -> 2016
13:31:14:564 -> 2208
13:31:14:576 -> 2079
13:31:14:583 -> 2387
13:31:14:593 -> 2027
13:31:14:603 -> 2141
13:31:14:613 -> 1988
13:31:14:624 -> 2337
13:31:14:633 -> 2085
13:31:14:643 -> 2111
13:31:14:653 -> 2034
13:31:14:681 -> 1949
13:31:14:683 -> 2047
13:31:14:684 -> 2117
13:31:14:694 -> 2152
13:31:14:703 -> 2103
13:31:14:713 -> 1953
13:31:14:723 -> 2244
13:31:14:733 -> 1971
13:31:14:744 -> 2333
13:31:14:755 -> 2102
13:31:14:764 -> 2254
13:31:14:774 -> 1923
13:31:14:784 -> 2123
13:31:14:802 -> 2149
13:31:14:807 -> 2277
13:31:14:814 -> 1928
13:31:14:824 -> 2227
13:31:14:834 -> 1910
13:31:14:844 -> 2182
13:31:14:854 -> 2037
13:31:14:864 -> 2216
13:31:14:874 -> 2025
13:31:14:884 -> 2095
13:31:14:894 -> 2327
13:31:14:904 -> 2158
13:31:14:914 -> 2268
13:31:14:925 -> 2133
13:31:14:934 -> 2048
13:31:14:944 -> 1811
13:31:14:954 -> 2174
13:31:14:964 -> 2098
13:31:14:975 -> 1988
13:31:14:985 -> 2058
13:31:14:995 -> 2070
13:31:15:005 -> 1958
13:31:15:015 -> 2034
13:31:15:025 -> 2155
13:31:15:036 -> 1984
13:31:15:052 -> 2228
13:31:15:055 -> 2126
13:31:15:065 -> 2479
13:31:15:075 -> 2175
13:31:15:090 -> 2149
13:31:15:097 -> 2007
13:31:15:105 -> 1991
13:31:15:115 -> 1997
13:31:15:126 -> 2034
13:31:15:137 -> 1879
13:31:15:145 -> 1885
13:31:15:155 -> 2067
13:31:15:165 -> 1998
13:31:15:176 -> 2135
13:31:15:210 -> 2218
13:31:15:211 -> 2105
13:31:15:211 -> 2154
13:31:15:216 -> 2038
13:31:15:227 -> 2045
13:31:15:236 -> 2050
13:31:15:246 -> 2101
13:31:15:256 -> 1831
13:31:15:266 -> 1933
13:31:15:276 -> 1988
13:31:15:286 -> 2054
13:31:15:302 -> 2215
13:31:15:310 -> 2076
13:31:15:316 -> 2225
13:31:15:326 -> 2038
13:31:15:336 -> 2114
13:31:15:346 -> 2012
13:31:15:356 -> 2065
13:31:15:366 -> 1932
13:31:15:376 -> 2129
13:31:15:386 -> 2018
13:31:15:396 -> 1985
13:31:15:411 -> 2034
13:31:15:417 -> 2167
13:31:15:427 -> 2108
13:31:15:437 -> 2069
13:31:15:447 -> 2005
13:31:15:457 -> 2083
13:31:15:467 -> 2051
13:31:15:477 -> 2072
13:31:15:487 -> 2039
13:31:15:499 -> 2076
13:31:15:507 -> 2100
13:31:15:517 -> 1953
13:31:15:527 -> 2166
13:31:15:537 -> 2117
13:31:15:547 -> 2236
13:31:15:557 -> 2076
13:31:15:567 -> 2131
13:31:15:577 -> 2092
13:31:15:587 -> 2233
13:31:15:597 -> 2075
13:31:15:607 -> 2117
13:31:15:618 -> 2114
13:31:15:627 -> 2052
13:31:15:638 -> 2045
13:31:15:648 -> 2095
13:31:15:658 -> 2096
13:31:15:668 -> 2127
13:31:15:678 -> 2077
13:31:15:688 -> 2048
13:31:15:698 -> 2072
13:31:15:708 -> 2018
13:31:15:763 -> 2070
13:31:15:799 -> 2102
13:31:15:799 -> 2063
13:31:15:799 -> 2110
13:31:15:799 -> 2058
13:31:15:799 -> 2090
13:31:15:799 -> 2044
13:31:15:799 -> 2082
13:31:15:799 -> 2049
13:31:15:825 -> 2105
13:31:15:825 -> 2066
13:31:15:842 -> 2079
13:31:15:842 -> 2053
13:31:15:848 -> 2088
13:31:15:874 -> 2079
13:31:15:875 -> 1963
13:31:15:879 -> 2077
13:31:15:889 -> 2071
13:31:15:899 -> 2046
13:31:15:909 -> 2036
13:31:15:919 -> 2089
13:31:15:929 -> 2024
13:31:15:939 -> 2096
13:31:15:949 -> 2019
13:31:15:959 -> 2119
13:31:15:969 -> 2015
13:31:15:979 -> 2131
13:31:15:989 -> 2011
13:31:15:999 -> 2138
13:31:16:014 -> 2028
13:31:16:019 -> 2133
13:31:16:029 -> 2016
13:31:16:041 -> 2131
13:31:16:049 -> 2021
13:31:16:060 -> 2137
13:31:16:069 -> 2037
13:31:16:081 -> 2136
13:31:16:096 -> 2057
13:31:16:100 -> 2141
13:31:16:110 -> 2023
13:31:16:120 -> 2157
13:31:16:130 -> 2009
13:31:16:141 -> 2156
13:31:16:150 -> 2012
13:31:16:160 -> 2167
13:31:16:170 -> 2006
13:31:16:180 -> 2177
13:31:16:192 -> 2007
13:31:16:200 -> 2197
13:31:16:210 -> 1934
13:31:16:221 -> 2190
13:31:16:230 -> 1986
13:31:16:240 -> 2217
13:31:16:250 -> 1999
13:31:16:261 -> 2213
13:31:16:300 -> 1950
13:31:16:301 -> 2210
13:31:16:301 -> 1964
13:31:16:301 -> 2222
13:31:16:311 -> 1940
13:31:16:331 -> 2219
13:31:16:332 -> 1962
13:31:16:341 -> 2212
13:31:16:351 -> 1946
13:31:16:361 -> 2219
13:31:16:371 -> 1961
13:31:16:381 -> 2216
13:31:16:391 -> 1949
13:31:16:401 -> 2218
13:31:16:411 -> 1952
13:31:16:422 -> 2209
13:31:16:431 -> 1949
13:31:16:441 -> 2228
13:31:16:451 -> 1939
13:31:16:462 -> 2215
13:31:16:471 -> 1961
13:31:16:481 -> 2216
13:31:16:491 -> 1964
13:31:16:502 -> 2205
13:31:16:514 -> 1956
13:31:16:521 -> 2203
13:31:16:531 -> 1958
13:31:16:542 -> 2190
13:31:16:552 -> 1946
13:31:16:562 -> 2170
13:31:16:572 -> 1940
13:31:16:582 -> 2183
13:31:16:592 -> 1962
13:31:16:602 -> 2167
13:31:16:612 -> 1958
13:31:16:622 -> 2173
13:31:16:632 -> 1962
13:31:16:642 -> 2148
13:31:16:652 -> 1985
13:31:16:662 -> 2161
13:31:16:672 -> 1965
13:31:16:682 -> 2153
13:31:16:692 -> 1990
13:31:16:702 -> 2169
13:31:16:718 -> 1986
13:31:16:723 -> 2158
13:31:16:733 -> 1988
13:31:16:743 -> 2152
13:31:16:753 -> 2001
13:31:16:763 -> 2164
13:31:16:773 -> 2010
13:31:16:783 -> 2161
13:31:16:793 -> 2015
13:31:16:824 -> 2166
13:31:16:825 -> 2005
13:31:16:825 -> 2156
13:31:16:833 -> 2025
13:31:16:843 -> 2150
13:31:16:853 -> 2018
13:31:16:863 -> 2157
13:31:16:874 -> 2013
13:31:16:883 -> 2144
13:31:16:893 -> 2034
13:31:16:903 -> 2113
13:31:16:913 -> 2036
13:31:16:931 -> 2147
13:31:16:933 -> 2037
13:31:16:944 -> 2163
13:31:16:953 -> 2027
13:31:16:964 -> 2155
13:31:16:974 -> 2044
13:31:16:984 -> 2163
13:31:16:994 -> 2015
13:31:17:004 -> 2143
13:31:17:014 -> 2052
13:31:17:024 -> 2149
13:31:17:034 -> 2048
13:31:17:044 -> 2125
13:31:17:054 -> 2044
13:31:17:064 -> 2130
13:31:17:076 -> 2053
13:31:17:084 -> 2111
13:31:17:094 -> 2071
13:31:17:104 -> 2101
13:31:17:114 -> 2060
13:31:17:124 -> 2092
13:31:17:134 -> 2043
13:31:17:144 -> 2088
13:31:17:167 -> 2039
13:31:17:170 -> 2078
13:31:17:177 -> 2010
13:31:17:185 -> 2068
13:31:17:195 -> 2070
13:31:17:205 -> 2079
13:31:17:233 -> 2035
13:31:17:246 -> 2074
13:31:17:246 -> 2034
13:31:17:246 -> 2068
13:31:17:280 -> 2048
13:31:17:280 -> 2061
13:31:17:280 -> 2046
13:31:17:285 -> 2049
13:31:17:295 -> 2049
13:31:17:314 -> 2070
13:31:17:354 -> 2069
13:31:17:354 -> 2070
13:31:17:370 -> 2053
13:31:17:370 -> 2058
13:31:17:370 -> 2051
13:31:17:370 -> 2060
13:31:17:375 -> 2054
13:31:17:386 -> 2062
13:31:17:395 -> 2059
13:31:17:405 -> 2058
13:31:17:416 -> 2106
13:31:17:426 -> 2030
13:31:17:436 -> 2101
13:31:17:446 -> 2010
13:31:17:457 -> 2128
13:31:17:466 -> 2026
13:31:17:476 -> 2124
13:31:17:486 -> 2044
13:31:17:498 -> 2097
13:31:17:512 -> 1924
13:31:17:522 -> 2183
13:31:17:526 -> 2065
13:31:17:536 -> 2325
13:31:17:546 -> 2414
13:31:17:556 -> 2205
13:31:17:568 -> 2231
13:31:17:576 -> 1779
13:31:17:586 -> 2177
13:31:17:596 -> 2062
13:31:17:606 -> 2184
13:31:17:616 -> 2184
13:31:17:627 -> 2095
13:31:17:637 -> 2070
13:31:17:647 -> 2146
13:31:17:657 -> 2083
13:31:17:667 -> 2088
13:31:17:677 -> 2132
13:31:17:687 -> 2203
13:31:17:697 -> 2112
13:31:17:707 -> 2015
13:31:17:717 -> 2088
13:31:17:729 -> 2099
13:31:17:737 -> 2361
13:31:17:748 -> 1964
13:31:17:761 -> 2198
13:31:17:769 -> 1973
13:31:17:777 -> 1965
13:31:17:787 -> 1903
13:31:17:797 -> 1804
13:31:17:807 -> 1948
13:31:17:818 -> 2162
13:31:17:828 -> 1475
13:31:17:837 -> 2075
13:31:17:848 -> 2260
13:31:17:883 -> 2025
13:31:17:883 -> 2081
13:31:17:883 -> 441
13:31:17:888 -> 1710
13:31:17:898 -> 2097
13:31:17:908 -> 1916
13:31:17:918 -> 1588
13:31:17:928 -> 2074
13:31:17:947 -> 2121
13:31:17:949 -> 2215
13:31:17:958 -> 2161
13:31:17:971 -> 2336
13:31:17:978 -> 2023
13:31:17:988 -> 2155
13:31:17:998 -> 2294
13:31:18:008 -> 1878
13:31:18:018 -> 2374
13:31:18:028 -> 1625
13:31:18:038 -> 2238
13:31:18:048 -> 2017
13:31:18:058 -> 2125
13:31:18:069 -> 1886
13:31:18:078 -> 1961
13:31:18:089 -> 2222
13:31:18:099 -> 2292
13:31:18:109 -> 2045
13:31:18:119 -> 2008
13:31:18:129 -> 1734
13:31:18:139 -> 2225
13:31:18:149 -> 2055
13:31:18:159 -> 2303
13:31:18:169 -> 1822
13:31:18:179 -> 2072
13:31:18:198 -> 2215
13:31:18:200 -> 2244
13:31:18:209 -> 1848
13:31:18:219 -> 2255
13:31:18:229 -> 2016
13:31:18:242 -> 2310
13:31:18:249 -> 1945
13:31:18:259 -> 1940
13:31:18:270 -> 2059
13:31:18:279 -> 2129
13:31:18:289 -> 1944
13:31:18:300 -> 2128
13:31:18:309 -> 1995
13:31:18:320 -> 2472
13:31:18:330 -> 1925
13:31:18:340 -> 2142
13:31:18:350 -> 1990
13:31:18:360 -> 2338
13:31:18:380 -> 1868
13:31:18:381 -> 2014
13:31:18:413 -> 1929
13:31:18:414 -> 2355
13:31:18:414 -> 1760
13:31:18:420 -> 2199
13:31:18:430 -> 2056
13:31:18:440 -> 2257
13:31:18:450 -> 1947
13:31:18:460 -> 2304
13:31:18:470 -> 2056
13:31:18:481 -> 2349
13:31:18:491 -> 1975
13:31:18:500 -> 2423
13:31:18:510 -> 2183
13:31:18:521 -> 2417
13:31:18:530 -> 1955
13:31:18:541 -> 2288
13:31:18:551 -> 1888
13:31:18:567 -> 2155
13:31:18:574 -> 1902
13:31:18:581 -> 2137
13:31:18:592 -> 2192
13:31:18:601 -> 2081
13:31:18:611 -> 1911
13:31:18:621 -> 2259
13:31:18:631 -> 1878
13:31:18:662 -> 2188
13:31:18:673 -> 1998
13:31:18:673 -> 1289
13:31:18:673 -> 1633
13:31:18:731 -> 2313
13:31:18:731 -> 2033
13:31:18:731 -> 2141
13:31:18:731 -> 1774
13:31:18:731 -> 1898
13:31:18:744 -> 1801
13:31:18:744 -> 2255
13:31:18:761 -> 2164
13:31:18:786 -> 2144
13:31:18:786 -> 2121
13:31:18:786 -> 2232
13:31:18:795 -> 2222
13:31:18:802 -> 2195
13:31:18:812 -> 2078
13:31:18:822 -> 2091
13:31:18:832 -> 2040
13:31:18:842 -> 2247
13:31:18:852 -> 2223
13:31:18:862 -> 2121
13:31:18:880 -> 1862
13:31:18:882 -> 2452
13:31:18:892 -> 1724
13:31:18:902 -> 2308
13:31:18:933 -> 1962
13:31:18:934 -> 2176
13:31:18:934 -> 2015
13:31:18:943 -> 2110
13:31:18:953 -> 2012
13:31:18:963 -> 2033
13:31:18:973 -> 2109
13:31:18:983 -> 2101
13:31:18:993 -> 1814
13:31:19:003 -> 2200
13:31:19:013 -> 2023
13:31:19:023 -> 2192
13:31:19:033 -> 2123
13:31:19:043 -> 2160
13:31:19:053 -> 1996
13:31:19:064 -> 1866
13:31:19:085 -> 2234
13:31:19:086 -> 2227
13:31:19:094 -> 1918
13:31:19:103 -> 2172
13:31:19:113 -> 2118
13:31:19:123 -> 2154
13:31:19:133 -> 1815
13:31:19:143 -> 1829
13:31:19:155 -> 2143
13:31:19:163 -> 1878
13:31:19:174 -> 2137
13:31:19:184 -> 2235
13:31:19:194 -> 2297
13:31:19:204 -> 2115
13:31:19:214 -> 2031
13:31:19:224 -> 2132
13:31:19:234 -> 2094
13:31:19:244 -> 1981
13:31:19:254 -> 2106
13:31:19:264 -> 2125
13:31:19:282 -> 2234
13:31:19:284 -> 2222
13:31:19:294 -> 2009
13:31:19:305 -> 2090
13:31:19:314 -> 2077
13:31:19:324 -> 2102
13:31:19:334 -> 2041
13:31:19:344 -> 2034
13:31:19:354 -> 1933
13:31:19:365 -> 2001
13:31:19:374 -> 2047
13:31:19:390 -> 2160
13:31:19:399 -> 1905
13:31:19:404 -> 2097
13:31:19:415 -> 2026
13:31:19:425 -> 2066
13:31:19:462 -> 2043
13:31:19:463 -> 2085
13:31:19:463 -> 2021
13:31:19:465 -> 2065
13:31:19:475 -> 2042
13:31:19:485 -> 2053
13:31:19:495 -> 2049
13:31:19:505 -> 2045
13:31:19:515 -> 2050
13:31:19:525 -> 2053
13:31:19:535 -> 2095
13:31:19:549 -> 2039
13:31:19:555 -> 2078
13:31:19:565 -> 2037
13:31:19:575 -> 2116
13:31:19:585 -> 2018
13:31:19:595 -> 2109
13:31:19:606 -> 2020
13:31:19:615 -> 2127
13:31:19:625 -> 2019
13:31:19:636 -> 2107
13:31:19:646 -> 2028
13:31:19:657 -> 2099
13:31:19:666 -> 2021
13:31:19:677 -> 2097
13:31:19:686 -> 2057
13:31:19:696 -> 2085
13:31:19:706 -> 2043
13:31:19:716 -> 2062
13:31:19:726 -> 2089
13:31:19:736 -> 2056
13:31:19:746 -> 2081
13:31:19:757 -> 2059
13:31:19:766 -> 2111
13:31:19:776 -> 2052
13:31:19:786 -> 2109
13:31:19:796 -> 2074
13:31:19:815 -> 2115
13:31:19:816 -> 2073
13:31:19:826 -> 2100
13:31:19:836 -> 2090
13:31:19:846 -> 2123
13:31:19:857 -> 2079
13:31:19:868 -> 2133
13:31:19:877 -> 2075
13:31:19:887 -> 2133
13:31:19:897 -> 2077
13:31:19:907 -> 2119
13:31:19:917 -> 2083
13:31:19:927 -> 2110
13:31:19:937 -> 2109
13:31:19:947 -> 2087
13:31:19:957 -> 2118
13:31:19:980 -> 2085
13:31:19:981 -> 2110
13:31:19:987 -> 2096
13:31:19:997 -> 2107
13:31:20:009 -> 2087
13:31:20:017 -> 2089
13:31:20:033 -> 2094
13:31:20:038 -> 2088
13:31:20:048 -> 2104
13:31:20:058 -> 2089
13:31:20:067 -> 2095
13:31:20:078 -> 2085
13:31:20:088 -> 2075
13:31:20:098 -> 2075
13:31:20:108 -> 2095
13:31:20:118 -> 2070
13:31:20:128 -> 2075
13:31:20:138 -> 2113
13:31:20:148 -> 2083
13:31:20:158 -> 2100
13:31:20:168 -> 2059
13:31:20:178 -> 2114
13:31:20:188 -> 2051
13:31:20:203 -> 2120
13:31:20:208 -> 2046
13:31:20:218 -> 2125
13:31:20:228 -> 2033
13:31:20:240 -> 2126
13:31:20:248 -> 2022
13:31:20:258 -> 2159
13:31:20:268 -> 2012
13:31:20:278 -> 2118
13:31:20:288 -> 2022
13:31:20:299 -> 2136
13:31:20:309 -> 2020
13:31:20:319 -> 2131
13:31:20:329 -> 2006
13:31:20:339 -> 2143
13:31:20:349 -> 2011
13:31:20:359 -> 2119
13:31:20:369 -> 2020
13:31:20:379 -> 2136
13:31:20:389 -> 2022
13:31:20:411 -> 2136
13:31:20:416 -> 2010
13:31:20:423 -> 2140
13:31:20:437 -> 2005
13:31:20:467 -> 2165
13:31:20:467 -> 2013
13:31:20:467 -> 2175
13:31:20:519 -> 2008
13:31:20:519 -> 2200
13:31:20:519 -> 2001
13:31:20:522 -> 2210
13:31:20:522 -> 1989
13:31:20:522 -> 2221
13:31:20:548 -> 1986
13:31:20:555 -> 2237
13:31:20:555 -> 1968
13:31:20:560 -> 2194
13:31:20:570 -> 1972
13:31:20:580 -> 2192
13:31:20:590 -> 1987
13:31:20:600 -> 2242
13:31:20:610 -> 1957
13:31:20:621 -> 2229
13:31:20:631 -> 1976
13:31:20:641 -> 2214
13:31:20:651 -> 1965
13:31:20:661 -> 2214
13:31:20:671 -> 1956
13:31:20:680 -> 2209
13:31:20:692 -> 1976
13:31:20:701 -> 2204
13:31:20:711 -> 1960
13:31:20:722 -> 2206
13:31:20:731 -> 1979
13:31:20:741 -> 2209
13:31:20:751 -> 1965
13:31:20:761 -> 2191
13:31:20:771 -> 1967
13:31:20:781 -> 2185
13:31:20:791 -> 1946
13:31:20:801 -> 2168
13:31:20:819 -> 1939
13:31:20:824 -> 2161
13:31:20:832 -> 1936
13:31:20:848 -> 2163
13:31:20:864 -> 1935
13:31:20:864 -> 2168
13:31:20:871 -> 1970
13:31:20:881 -> 2117
13:31:20:896 -> 1945
13:31:20:901 -> 2146
13:31:20:911 -> 1934
13:31:20:928 -> 2140
13:31:20:933 -> 1941
13:31:20:941 -> 2145
13:31:20:953 -> 1950
13:31:20:962 -> 2149
13:31:20:972 -> 1957
13:31:20:982 -> 2163
13:31:20:992 -> 1962
13:31:21:002 -> 2142
13:31:21:012 -> 1970
13:31:21:043 -> 2133
13:31:21:044 -> 1979
13:31:21:044 -> 2154
13:31:21:052 -> 1985
13:31:21:062 -> 2140
13:31:21:073 -> 2004
13:31:21:082 -> 2141
13:31:21:092 -> 1986
13:31:21:103 -> 2140
13:31:21:113 -> 1986
13:31:21:125 -> 2129
13:31:21:132 -> 2008
13:31:21:151 -> 2132
13:31:21:155 -> 1997
13:31:21:163 -> 2143
13:31:21:173 -> 2058
13:31:21:183 -> 2090
13:31:21:193 -> 1945
13:31:21:204 -> 2147
13:31:21:213 -> 2039
13:31:21:223 -> 2150
13:31:21:233 -> 2087
13:31:21:243 -> 1952
13:31:21:253 -> 1820
13:31:21:263 -> 1929
13:31:21:273 -> 2134
13:31:21:283 -> 2047
13:31:21:293 -> 1939
13:31:21:303 -> 2181
13:31:21:314 -> 2044
13:31:21:325 -> 2144
13:31:21:335 -> 2067
13:31:21:347 -> 1863
13:31:21:354 -> 2097
13:31:21:369 -> 2041
13:31:21:375 -> 2085
13:31:21:384 -> 2134
13:31:21:394 -> 2065
13:31:21:404 -> 1972
13:31:21:414 -> 2026
13:31:21:425 -> 1415
13:31:21:434 -> 2151
13:31:21:444 -> 2069
13:31:21:454 -> 2092
13:31:21:464 -> 2137
13:31:21:474 -> 1959
13:31:21:484 -> 2174
13:31:21:494 -> 2294
13:31:21:504 -> 2222
13:31:21:514 -> 2290
13:31:21:524 -> 2020
13:31:21:534 -> 1855
13:31:21:576 -> 2001
13:31:21:580 -> 1934
13:31:21:580 -> 2227
13:31:21:580 -> 1969
13:31:21:586 -> 2073
13:31:21:595 -> 2428
13:31:21:605 -> 2171
13:31:21:615 -> 1961
13:31:21:625 -> 2017
13:31:21:635 -> 2630
13:31:21:645 -> 1648
13:31:21:655 -> 2382
13:31:21:665 -> 2191
13:31:21:675 -> 2021
13:31:21:685 -> 2163
13:31:21:695 -> 2070
13:31:21:706 -> 2245
13:31:21:715 -> 2207
13:31:21:735 -> 1963
13:31:21:759 -> 2128
13:31:21:759 -> 1871
13:31:21:759 -> 1985
13:31:21:782 -> 2041
13:31:21:782 -> 2369
13:31:21:801 -> 2310
13:31:21:801 -> 2191
13:31:21:841 -> 2126
13:31:21:841 -> 2030
13:31:21:841 -> 1883
13:31:21:841 -> 1970
13:31:21:857 -> 2099
13:31:21:857 -> 2106
13:31:21:866 -> 1964
13:31:21:876 -> 1975
13:31:21:891 -> 2418
13:31:21:896 -> 2283
13:31:21:907 -> 2159
13:31:21:916 -> 1963
13:31:21:926 -> 2033
13:31:21:937 -> 1779
13:31:21:946 -> 2069
13:31:21:956 -> 2008
13:31:21:966 -> 2052
13:31:21:977 -> 1870
13:31:21:988 -> 2421
13:31:21:997 -> 2141
13:31:22:008 -> 2191
13:31:22:024 -> 2114
13:31:22:034 -> 2226
13:31:22:037 -> 2086
13:31:22:047 -> 2308
13:31:22:057 -> 2488
13:31:22:067 -> 2427
13:31:22:096 -> 2324
13:31:22:098 -> 1915
13:31:22:098 -> 1957
13:31:22:108 -> 2146
13:31:22:117 -> 2248
13:31:22:127 -> 2232
13:31:22:148 -> 1957
13:31:22:149 -> 2015
13:31:22:157 -> 2372
13:31:22:168 -> 2360
13:31:22:177 -> 2281
13:31:22:188 -> 2165
13:31:22:197 -> 2112
13:31:22:208 -> 2140
13:31:22:218 -> 1945
13:31:22:228 -> 2217
13:31:22:238 -> 1821
13:31:22:249 -> 2406
13:31:22:259 -> 2224
13:31:22:270 -> 2110
13:31:22:278 -> 2145
13:31:22:288 -> 2106
13:31:22:298 -> 2243
13:31:22:308 -> 2086
13:31:22:320 -> 2383
13:31:22:328 -> 2330
13:31:22:338 -> 2006
13:31:22:348 -> 2141
13:31:22:358 -> 2102
13:31:22:368 -> 2130
13:31:22:378 -> 2093
13:31:22:389 -> 2113
13:31:22:398 -> 1515
13:31:22:408 -> 2118
13:31:22:418 -> 2160
13:31:22:429 -> 1943
13:31:22:441 -> 1980
13:31:22:449 -> 1906
13:31:22:465 -> 2206
13:31:22:471 -> 2127
13:31:22:479 -> 2207
13:31:22:489 -> 2138
13:31:22:499 -> 2208
13:31:22:522 -> 2118
13:31:22:525 -> 2173
13:31:22:529 -> 2124
13:31:22:540 -> 2064
13:31:22:549 -> 2022
13:31:22:559 -> 2021
13:31:22:569 -> 1721
13:31:22:581 -> 2429
13:31:22:592 -> 2232
13:31:22:631 -> 2074
13:31:22:634 -> 2140
13:31:22:634 -> 1807
13:31:22:634 -> 1987
13:31:22:640 -> 2233
13:31:22:649 -> 2074
13:31:22:660 -> 2158
13:31:22:670 -> 1873
13:31:22:681 -> 2372
13:31:22:691 -> 2007
13:31:22:700 -> 2206
13:31:22:712 -> 2133
13:31:22:720 -> 2021
13:31:22:730 -> 2006
13:31:22:741 -> 2049
13:31:22:750 -> 1861
13:31:22:760 -> 2215
13:31:22:770 -> 2064
13:31:22:780 -> 2320
13:31:22:805 -> 2136
13:31:22:830 -> 2238
13:31:22:830 -> 1918
13:31:22:830 -> 2262
13:31:22:862 -> 2001
13:31:22:902 -> 2317
13:31:22:902 -> 1833
13:31:22:902 -> 2088
13:31:22:902 -> 2026
13:31:22:902 -> 2410
13:31:22:902 -> 1901
13:31:22:902 -> 2213
13:31:22:942 -> 2066
13:31:22:942 -> 2240
13:31:22:942 -> 2064
13:31:22:942 -> 2133
13:31:22:951 -> 1977
13:31:22:961 -> 2215
13:31:22:971 -> 1870
13:31:22:981 -> 2138
13:31:23:026 -> 1814
13:31:23:026 -> 2085
13:31:23:026 -> 1954
13:31:23:026 -> 2275
13:31:23:033 -> 1971
13:31:23:081 -> 2124
13:31:23:081 -> 1964
13:31:23:081 -> 2092
13:31:23:081 -> 1969
13:31:23:157 -> 2157
13:31:23:157 -> 1978
13:31:23:157 -> 2156
13:31:23:157 -> 1894
13:31:23:157 -> 2163
13:31:23:157 -> 1951
13:31:23:205 -> 2155
13:31:23:205 -> 1995
13:31:23:205 -> 2140
13:31:23:205 -> 1986
13:31:23:205 -> 2149
13:31:23:205 -> 1948
13:31:23:205 -> 2120
13:31:23:230 -> 1976
13:31:23:230 -> 2147
13:31:23:253 -> 1959
13:31:23:253 -> 2138
13:31:23:253 -> 1992
13:31:23:266 -> 2144
13:31:23:291 -> 1992
13:31:23:291 -> 2141
13:31:23:298 -> 2018
13:31:23:303 -> 2116
13:31:23:313 -> 2022
13:31:23:323 -> 2110
13:31:23:333 -> 2022
13:31:23:344 -> 2135
13:31:23:354 -> 2033
13:31:23:363 -> 2154
13:31:23:374 -> 2030
13:31:23:384 -> 2146
13:31:23:406 -> 2042
13:31:23:406 -> 2138
13:31:23:425 -> 2041
13:31:23:425 -> 2137
13:31:23:444 -> 2070
13:31:23:444 -> 2145
13:31:23:466 -> 2057
13:31:23:466 -> 2137
13:31:23:476 -> 2071
13:31:23:489 -> 2146
13:31:23:506 -> 2049
13:31:23:506 -> 2141
13:31:23:513 -> 2076
13:31:23:523 -> 2147
13:31:23:545 -> 2062
13:31:23:545 -> 2138
13:31:23:554 -> 2064
13:31:23:564 -> 2133
13:31:23:574 -> 2028
13:31:23:585 -> 2126
13:31:23:594 -> 2063
13:31:23:608 -> 2121
13:31:23:614 -> 2066
13:31:23:624 -> 2116
13:31:23:634 -> 2049
13:31:23:645 -> 2121
13:31:23:689 -> 2048
13:31:23:726 -> 2106
13:31:23:726 -> 2062
13:31:23:726 -> 2108
13:31:23:726 -> 2055
13:31:23:726 -> 2110
13:31:23:726 -> 2053
13:31:23:726 -> 2100
13:31:23:759 -> 2055
13:31:23:759 -> 2086
13:31:23:759 -> 2052
13:31:23:783 -> 2089
13:31:23:783 -> 2063
13:31:23:805 -> 2059
13:31:23:805 -> 2046
13:31:23:835 -> 2065
13:31:23:835 -> 2065
13:31:23:835 -> 2074
13:31:23:835 -> 2072
13:31:23:845 -> 2080
13:31:23:858 -> 2082
13:31:23:866 -> 2070
13:31:23:875 -> 2105
13:31:23:885 -> 2066
13:31:23:895 -> 2112
13:31:23:906 -> 2056
13:31:23:915 -> 2131
13:31:23:925 -> 2020
13:31:23:935 -> 2141
13:31:23:945 -> 2025
13:31:23:957 -> 2151
13:31:23:967 -> 2025
13:31:23:976 -> 2125
13:31:23:986 -> 2022
13:31:23:996 -> 2098
13:31:24:006 -> 2022
13:31:24:016 -> 2112
13:31:24:026 -> 2042
13:31:24:036 -> 2082
13:31:24:046 -> 2070
13:31:24:056 -> 2076
13:31:24:066 -> 2078
13:31:24:077 -> 2069
13:31:24:086 -> 2109
13:31:24:096 -> 2061
13:31:24:106 -> 2113
13:31:24:117 -> 2083
13:31:24:137 -> 2109
13:31:24:140 -> 2059
13:31:24:146 -> 2105
13:31:24:156 -> 2069
13:31:24:167 -> 2110
13:31:24:177 -> 2071
13:31:24:228 -> 2112
13:31:24:228 -> 2080
13:31:24:231 -> 2120
13:31:24:231 -> 2060
13:31:24:231 -> 2154
13:31:24:237 -> 2047
13:31:24:247 -> 2132
13:31:24:257 -> 2078
13:31:24:267 -> 2111
13:31:24:278 -> 2098
13:31:24:287 -> 2101
13:31:24:298 -> 2111
13:31:24:308 -> 2095
13:31:24:318 -> 2133
13:31:24:327 -> 2084
13:31:24:337 -> 2085
13:31:24:347 -> 2091
13:31:24:357 -> 2105
13:31:24:367 -> 2083
13:31:24:377 -> 2084
13:31:24:388 -> 2096
13:31:24:397 -> 2081
13:31:24:408 -> 2080
13:31:24:417 -> 2077
13:31:24:428 -> 2112
13:31:24:449 -> 2073
13:31:24:450 -> 2084
13:31:24:458 -> 2063
13:31:24:468 -> 2083
13:31:24:478 -> 2095
13:31:24:488 -> 2053
13:31:24:499 -> 2089
13:31:24:508 -> 2031
13:31:24:518 -> 2101
13:31:24:528 -> 2023
13:31:24:538 -> 2090
13:31:24:548 -> 1994
13:31:24:558 -> 2116
13:31:24:568 -> 2012
13:31:24:578 -> 2111
13:31:24:589 -> 1999
13:31:24:598 -> 2095
13:31:24:608 -> 1995
13:31:24:619 -> 2096
13:31:24:629 -> 1974
13:31:24:638 -> 2094
13:31:24:649 -> 1979
13:31:24:659 -> 2067
13:31:24:669 -> 2007
13:31:24:686 -> 2117
13:31:24:693 -> 1994
13:31:24:699 -> 2116
13:31:24:709 -> 2004
13:31:24:719 -> 2099
13:31:24:752 -> 2025
13:31:24:754 -> 2100
13:31:24:754 -> 1980
13:31:24:759 -> 2097
13:31:24:769 -> 2006
13:31:24:779 -> 2144
13:31:24:789 -> 1944
13:31:24:799 -> 2167
13:31:24:809 -> 1952
13:31:24:823 -> 2183
13:31:24:830 -> 1976
13:31:24:839 -> 2195
13:31:24:849 -> 1999
13:31:24:859 -> 2182
13:31:24:870 -> 1970
13:31:24:880 -> 2204
13:31:24:891 -> 1966
13:31:24:900 -> 2196
13:31:24:910 -> 2001
13:31:24:920 -> 2217
13:31:24:930 -> 1994
13:31:24:940 -> 2324
13:31:24:951 -> 1962
13:31:24:964 -> 2282
13:31:24:972 -> 1991
13:31:24:980 -> 2282
13:31:24:990 -> 1925
13:31:25:000 -> 2006
13:31:25:010 -> 1961
13:31:25:020 -> 2117
13:31:25:030 -> 1762
13:31:25:040 -> 2202
13:31:25:050 -> 1978
13:31:25:061 -> 2271
13:31:25:070 -> 2251
13:31:25:081 -> 2211
13:31:25:091 -> 2041
13:31:25:101 -> 2350
13:31:25:111 -> 1734
13:31:25:126 -> 2088
13:31:25:131 -> 2357
13:31:25:141 -> 2134
13:31:25:151 -> 2041
13:31:25:161 -> 2146
13:31:25:171 -> 1749
13:31:25:181 -> 2185
13:31:25:191 -> 1974
13:31:25:201 -> 2117
13:31:25:211 -> 1869
13:31:25:221 -> 2289
13:31:25:231 -> 1916
13:31:25:242 -> 2023
13:31:25:297 -> 1639
13:31:25:299 -> 2083
13:31:25:299 -> 1887
13:31:25:299 -> 2219
13:31:25:299 -> 1754
13:31:25:302 -> 2099
13:31:25:312 -> 2319
13:31:25:322 -> 2175
13:31:25:332 -> 2279
13:31:25:342 -> 2126
13:31:25:352 -> 1638
13:31:25:362 -> 2334
13:31:25:372 -> 1717
13:31:25:382 -> 2094
13:31:25:392 -> 1698
13:31:25:402 -> 2258
13:31:25:412 -> 2230
13:31:25:422 -> 1918
13:31:25:436 -> 2230
13:31:25:442 -> 2253
13:31:25:452 -> 1917
13:31:25:462 -> 2082
13:31:25:476 -> 1965
13:31:25:482 -> 1846
13:31:25:492 -> 1955
13:31:25:503 -> 1996
13:31:25:512 -> 2053
13:31:25:522 -> 1733
13:31:25:533 -> 2111
13:31:25:543 -> 2207
13:31:25:553 -> 1900
13:31:25:563 -> 2294
13:31:25:573 -> 2100
13:31:25:583 -> 1988
13:31:25:593 -> 1865
13:31:25:612 -> 2096
13:31:25:614 -> 1390
13:31:25:623 -> 2454
13:31:25:633 -> 1700
13:31:25:644 -> 2045
13:31:25:653 -> 2022
13:31:25:663 -> 1903
13:31:25:673 -> 2076
13:31:25:683 -> 2031
13:31:25:693 -> 2057
13:31:25:703 -> 2035
13:31:25:713 -> 2153
13:31:25:723 -> 2168
13:31:25:733 -> 1887
13:31:25:762 -> 2163
13:31:25:776 -> 2172
13:31:25:776 -> 2395
13:31:25:776 -> 2010
13:31:25:841 -> 2356
13:31:25:841 -> 1261
13:31:25:841 -> 2039
13:31:25:842 -> 2088
13:31:25:842 -> 2083
13:31:25:842 -> 2093
13:31:25:844 -> 2119
13:31:25:854 -> 1923
13:31:25:864 -> 2370
13:31:25:874 -> 1961
13:31:25:898 -> 2023
13:31:25:898 -> 1887
13:31:25:905 -> 2164
13:31:25:914 -> 2117
13:31:25:925 -> 2013
13:31:25:934 -> 1921
13:31:25:944 -> 2208
13:31:25:955 -> 2229
13:31:25:964 -> 1904
13:31:25:975 -> 2613
13:31:25:985 -> 2227
13:31:25:995 -> 2030
13:31:26:011 -> 2033
13:31:26:015 -> 2122
13:31:26:025 -> 1879
13:31:26:035 -> 1949
13:31:26:045 -> 1909
13:31:26:055 -> 1927
13:31:26:065 -> 2014
13:31:26:075 -> 2094
13:31:26:085 -> 2045
13:31:26:095 -> 1967
13:31:26:105 -> 2221
13:31:26:115 -> 2033
13:31:26:125 -> 2151
13:31:26:135 -> 1942
13:31:26:145 -> 2121
13:31:26:155 -> 2083
13:31:26:165 -> 1889
13:31:26:175 -> 1990
13:31:26:185 -> 2027
13:31:26:196 -> 2102
13:31:26:208 -> 2072
13:31:26:216 -> 1943
13:31:26:226 -> 2190
13:31:26:236 -> 2105
13:31:26:246 -> 2206
13:31:26:264 -> 2022
13:31:26:266 -> 2403
13:31:26:276 -> 2054
13:31:26:286 -> 1971
13:31:26:296 -> 1804
13:31:26:307 -> 2127
13:31:26:316 -> 1904
13:31:26:326 -> 2193
13:31:26:336 -> 2291
13:31:26:369 -> 2025
13:31:26:385 -> 2084
13:31:26:385 -> 2174
13:31:26:385 -> 2212
13:31:26:396 -> 1877
13:31:26:401 -> 2117
13:31:26:407 -> 2144
13:31:26:419 -> 2025
13:31:26:427 -> 2122
13:31:26:437 -> 2262
13:31:26:447 -> 2264
13:31:26:458 -> 2247
13:31:26:467 -> 2108
13:31:26:477 -> 2059
13:31:26:487 -> 2124
13:31:26:497 -> 2155
13:31:26:507 -> 2174
13:31:26:517 -> 2115
13:31:26:527 -> 2076
13:31:26:547 -> 2096
13:31:26:548 -> 2163
13:31:26:557 -> 2052
13:31:26:568 -> 2073
13:31:26:582 -> 2100
13:31:26:587 -> 2098
13:31:26:597 -> 2129
13:31:26:607 -> 2059
13:31:26:617 -> 2108
13:31:26:628 -> 2116
13:31:26:638 -> 2100
13:31:26:648 -> 2074
13:31:26:658 -> 2125
13:31:26:668 -> 2083
13:31:26:679 -> 2110
13:31:26:688 -> 2042
13:31:26:698 -> 2098
13:31:26:708 -> 2071
13:31:26:718 -> 2105
13:31:26:728 -> 2003
13:31:26:738 -> 2092
13:31:26:748 -> 2018
13:31:26:759 -> 2119
13:31:26:768 -> 2040
13:31:26:778 -> 2113
13:31:26:788 -> 2023
13:31:26:798 -> 2102
13:31:26:813 -> 1995
13:31:26:818 -> 2118
13:31:26:828 -> 1957
13:31:26:838 -> 2121
13:31:26:853 -> 1995
13:31:26:860 -> 2118
13:31:26:869 -> 1979
13:31:26:902 -> 2122
13:31:26:904 -> 1996
13:31:26:904 -> 2091
13:31:26:909 -> 2006
13:31:26:921 -> 2098
13:31:26:929 -> 2006
13:31:26:940 -> 2126
13:31:26:949 -> 2007
13:31:26:959 -> 2135
13:31:26:969 -> 1971
13:31:26:979 -> 2149
13:31:26:990 -> 1992
13:31:26:999 -> 2155
13:31:27:009 -> 1978
13:31:27:019 -> 2176
13:31:27:029 -> 1961
13:31:27:040 -> 2181
13:31:27:049 -> 1950
13:31:27:059 -> 2191
13:31:27:069 -> 1951
13:31:27:079 -> 2196
13:31:27:090 -> 1971
13:31:27:099 -> 2208
13:31:27:110 -> 1953
13:31:27:120 -> 2213
13:31:27:133 -> 1960
13:31:27:143 -> 2207
13:31:27:150 -> 1945
13:31:27:160 -> 2212
13:31:27:170 -> 1912
13:31:27:180 -> 2217
13:31:27:190 -> 2007
13:31:27:200 -> 2207
13:31:27:210 -> 1976
13:31:27:220 -> 2225
13:31:27:230 -> 1961
13:31:27:240 -> 2227
13:31:27:250 -> 1967
13:31:27:260 -> 2226
13:31:27:270 -> 1968
13:31:27:280 -> 2201
13:31:27:298 -> 1990
13:31:27:300 -> 2215
13:31:27:311 -> 1972
13:31:27:321 -> 2218
13:31:27:331 -> 1972
13:31:27:341 -> 2221
13:31:27:351 -> 1967
13:31:27:361 -> 2188
13:31:27:371 -> 1967
13:31:27:381 -> 2182
13:31:27:391 -> 1968
13:31:27:423 -> 2156
13:31:27:428 -> 1988
13:31:27:428 -> 2151
13:31:27:431 -> 1978
13:31:27:441 -> 2169
13:31:27:451 -> 1981
13:31:27:462 -> 2163
13:31:27:471 -> 1959
13:31:27:481 -> 2166
13:31:27:491 -> 1989
13:31:27:501 -> 2169
13:31:27:511 -> 1967
13:31:27:521 -> 2162
13:31:27:531 -> 1973
13:31:27:548 -> 2143
13:31:27:551 -> 1975
13:31:27:562 -> 2162
13:31:27:572 -> 1974
13:31:27:582 -> 2155
13:31:27:592 -> 1987
13:31:27:602 -> 2168
13:31:27:636 -> 2014
13:31:27:643 -> 2166
13:31:27:643 -> 2011
13:31:27:643 -> 2158
13:31:27:659 -> 2020
13:31:27:680 -> 2163
13:31:27:680 -> 2024
13:31:27:695 -> 2160
13:31:27:695 -> 2029
13:31:27:702 -> 2149
13:31:27:727 -> 2029
13:31:27:727 -> 2154
13:31:27:732 -> 2031
13:31:27:744 -> 2147
13:31:27:753 -> 2038
13:31:27:763 -> 2152
13:31:27:773 -> 2042
13:31:27:783 -> 2132
13:31:27:793 -> 2040
13:31:27:803 -> 2142
13:31:27:813 -> 2033
13:31:27:828 -> 2147
13:31:27:833 -> 2043
13:31:27:843 -> 2141
13:31:27:853 -> 2040
13:31:27:863 -> 2148
13:31:27:876 -> 2048
13:31:27:883 -> 2134
13:31:27:893 -> 2047
13:31:27:905 -> 2143
13:31:27:915 -> 2055
13:31:27:947 -> 2127
13:31:27:948 -> 2058
13:31:27:948 -> 2124
13:31:27:953 -> 2075
13:31:27:964 -> 2118
13:31:27:974 -> 2065
13:31:27:984 -> 2125
13:31:27:994 -> 2068
13:31:28:004 -> 2132
13:31:28:014 -> 2075
13:31:28:024 -> 2119
13:31:28:034 -> 2068
13:31:28:044 -> 2112
13:31:28:054 -> 2081
13:31:28:065 -> 2110
13:31:28:078 -> 2053
13:31:28:084 -> 2120
13:31:28:094 -> 2076
13:31:28:107 -> 2102
13:31:28:119 -> 2056
13:31:28:124 -> 2098
13:31:28:143 -> 2056
13:31:28:145 -> 2093
13:31:28:154 -> 2052
13:31:28:164 -> 2094
13:31:28:175 -> 2047
13:31:28:185 -> 2080
13:31:28:194 -> 2026
13:31:28:205 -> 2101
13:31:28:215 -> 2067
13:31:28:225 -> 2036
13:31:28:235 -> 2065
13:31:28:245 -> 2096
13:31:28:255 -> 2066
13:31:28:265 -> 2041
13:31:28:278 -> 2097
13:31:28:285 -> 2086
13:31:28:295 -> 2098
13:31:28:305 -> 2068
13:31:28:315 -> 2078
13:31:28:328 -> 2027
13:31:28:335 -> 2091
13:31:28:345 -> 2009
13:31:28:355 -> 2105
13:31:28:365 -> 2017
13:31:28:375 -> 2031
13:31:28:385 -> 1964
13:31:28:396 -> 2107
13:31:28:405 -> 1991
13:31:28:415 -> 2056
13:31:28:425 -> 2002
13:31:28:435 -> 2055
13:31:28:445 -> 2054
13:31:28:465 -> 2068
13:31:28:466 -> 2037
13:31:28:477 -> 2070
13:31:28:486 -> 2067
13:31:28:496 -> 2008
13:31:28:506 -> 2154
13:31:28:516 -> 2008
13:31:28:526 -> 2096
13:31:28:537 -> 2209
13:31:28:547 -> 2043
13:31:28:556 -> 2145
13:31:28:566 -> 2146
13:31:28:576 -> 2167
13:31:28:592 -> 2150
13:31:28:597 -> 2208
13:31:28:606 -> 1577
13:31:28:616 -> 2246
13:31:28:626 -> 2143
13:31:28:636 -> 2013
13:31:28:647 -> 2130
13:31:28:656 -> 2418
13:31:28:667 -> 2032
13:31:28:677 -> 2150
13:31:28:687 -> 1840
13:31:28:697 -> 2249
13:31:28:707 -> 2196
13:31:28:717 -> 1882
13:31:28:727 -> 1287
13:31:28:737 -> 2254
13:31:28:747 -> 2283
13:31:28:757 -> 1948
13:31:28:767 -> 1991
13:31:28:777 -> 2218
13:31:28:787 -> 2383
13:31:28:797 -> 2243
13:31:28:807 -> 1880
13:31:28:819 -> 2040
13:31:28:827 -> 2089
13:31:28:837 -> 1985
13:31:28:847 -> 2488
13:31:28:857 -> 2077
13:31:28:867 -> 2269
13:31:28:878 -> 2103
13:31:28:888 -> 1899
13:31:28:898 -> 2212
13:31:28:917 -> 2321
13:31:28:918 -> 2139
13:31:28:928 -> 1918
13:31:28:938 -> 2452
13:31:28:949 -> 1902
13:31:28:958 -> 2381
13:31:28:993 -> 1761
13:31:28:994 -> 2235
13:31:28:994 -> 2216
13:31:28:998 -> 2042
13:31:29:008 -> 2367
13:31:29:018 -> 2321
13:31:29:028 -> 1570
13:31:29:038 -> 2122
13:31:29:048 -> 2001
13:31:29:058 -> 1988
13:31:29:068 -> 2018
13:31:29:078 -> 2164
13:31:29:090 -> 804
13:31:29:099 -> 2270
13:31:29:110 -> 1903
13:31:29:119 -> 2341
13:31:29:129 -> 2223
13:31:29:139 -> 1805
13:31:29:149 -> 2168
13:31:29:159 -> 1911
13:31:29:169 -> 1973
13:31:29:179 -> 2080
13:31:29:189 -> 1819
13:31:29:209 -> 1999
13:31:29:212 -> 1900
13:31:29:219 -> 2313
13:31:29:230 -> 1943
13:31:29:239 -> 2165
13:31:29:249 -> 1281
13:31:29:259 -> 2160
13:31:29:269 -> 2032
13:31:29:279 -> 2126
13:31:29:290 -> 1425
13:31:29:299 -> 2124
13:31:29:309 -> 2081
13:31:29:319 -> 1679
13:31:29:330 -> 2087
13:31:29:340 -> 2272
13:31:29:350 -> 2059
13:31:29:360 -> 2059
13:31:29:370 -> 1755
13:31:29:380 -> 2153
13:31:29:390 -> 2252
13:31:29:400 -> 2364
13:31:29:410 -> 2077
13:31:29:420 -> 2073
13:31:29:432 -> 1891
13:31:29:442 -> 2499
13:31:29:450 -> 1981
13:31:29:487 -> 2238
13:31:29:487 -> 1824
13:31:29:526 -> 2334
13:31:29:526 -> 1723
13:31:29:526 -> 2050
13:31:29:526 -> 1692
13:31:29:526 -> 2197
13:31:29:547 -> 1946
13:31:29:547 -> 2040
13:31:29:551 -> 1710
13:31:29:565 -> 2167
13:31:29:579 -> 2084
13:31:29:581 -> 2294
13:31:29:603 -> 2155
13:31:29:607 -> 2224
13:31:29:611 -> 2036
13:31:29:626 -> 2190
13:31:29:631 -> 2184
13:31:29:641 -> 2111
13:31:29:651 -> 1734
13:31:29:661 -> 2396
13:31:29:672 -> 1313
13:31:29:681 -> 2003
13:31:29:691 -> 1945
13:31:29:701 -> 2164
13:31:29:711 -> 2220
13:31:29:723 -> 2024
13:31:29:731 -> 2114
13:31:29:741 -> 2131
13:31:29:752 -> 2048
13:31:29:762 -> 1966
13:31:29:772 -> 2008
13:31:29:782 -> 2188
13:31:29:792 -> 2217
13:31:29:802 -> 2134
13:31:29:812 -> 2227
13:31:29:824 -> 1838
13:31:29:832 -> 2148
13:31:29:842 -> 2077
13:31:29:852 -> 2065
13:31:29:862 -> 2152
13:31:29:872 -> 2027
13:31:29:882 -> 2012
13:31:29:892 -> 2033
13:31:29:903 -> 2083
13:31:29:912 -> 1995
13:31:29:930 -> 2158
13:31:29:932 -> 1809
13:31:29:942 -> 2139
13:31:29:953 -> 2018
13:31:29:964 -> 2154
13:31:29:973 -> 1984
13:31:29:982 -> 2256
13:31:29:993 -> 2037
13:31:30:003 -> 2171
13:31:30:013 -> 2044
13:31:30:023 -> 1861
13:31:30:058 -> 2064
13:31:30:064 -> 2235
13:31:30:064 -> 1866
13:31:30:064 -> 2091
13:31:30:073 -> 1893
13:31:30:083 -> 2146
13:31:30:093 -> 2007
13:31:30:103 -> 2050
13:31:30:113 -> 2048
13:31:30:126 -> 2106
13:31:30:133 -> 2077
13:31:30:143 -> 2398
13:31:30:153 -> 2014
13:31:30:163 -> 2244
13:31:30:174 -> 2137
13:31:30:183 -> 2196
13:31:30:193 -> 2152
13:31:30:203 -> 2107
13:31:30:214 -> 2237
13:31:30:228 -> 2179
13:31:30:234 -> 1964
13:31:30:244 -> 2057
13:31:30:254 -> 2084
13:31:30:264 -> 2180
13:31:30:274 -> 1932
13:31:30:284 -> 2165
13:31:30:294 -> 2122
13:31:30:304 -> 2082
13:31:30:314 -> 1995
13:31:30:324 -> 2116
13:31:30:334 -> 2055
13:31:30:344 -> 2036
13:31:30:354 -> 2076
13:31:30:364 -> 2050
13:31:30:374 -> 2049
13:31:30:384 -> 2035
13:31:30:394 -> 2067
13:31:30:404 -> 2056
13:31:30:414 -> 2078
13:31:30:425 -> 2027
13:31:30:435 -> 2032
13:31:30:449 -> 2104
13:31:30:455 -> 2073
13:31:30:467 -> 2044
13:31:30:475 -> 2033
13:31:30:485 -> 2059
13:31:30:495 -> 2079
13:31:30:505 -> 2050
13:31:30:515 -> 2110
13:31:30:525 -> 1968
13:31:30:535 -> 2092
13:31:30:545 -> 2010
13:31:30:577 -> 2078
13:31:30:578 -> 2049
13:31:30:578 -> 2076
13:31:30:585 -> 1997
13:31:30:595 -> 2069
13:31:30:607 -> 2040
13:31:30:616 -> 2042
13:31:30:626 -> 2071
13:31:30:636 -> 2055
13:31:30:646 -> 2092
13:31:30:657 -> 2034
13:31:30:667 -> 2075
13:31:30:677 -> 2066
13:31:30:686 -> 2080
13:31:30:700 -> 2051
13:31:30:708 -> 2114
13:31:30:716 -> 2044
13:31:30:726 -> 2103
13:31:30:736 -> 2069
13:31:30:746 -> 2125
13:31:30:757 -> 2041
13:31:30:766 -> 2123
13:31:30:776 -> 2084
13:31:30:786 -> 2130
13:31:30:796 -> 2029
13:31:30:806 -> 2154
13:31:30:816 -> 2050
13:31:30:826 -> 2126
13:31:30:837 -> 2034
13:31:30:846 -> 2135
13:31:30:857 -> 2053
13:31:30:867 -> 2126
13:31:30:877 -> 2074
13:31:30:887 -> 2091
13:31:30:897 -> 2116
13:31:30:907 -> 2096
13:31:30:917 -> 2074
13:31:30:927 -> 2106
13:31:30:940 -> 2079
13:31:30:947 -> 2089
13:31:30:957 -> 2078
13:31:30:967 -> 2085
13:31:30:977 -> 2086
13:31:30:987 -> 2109
13:31:30:997 -> 2072
13:31:31:063 -> 2111
13:31:31:069 -> 2088
13:31:31:069 -> 2114
13:31:31:069 -> 2096
13:31:31:069 -> 2099
13:31:31:069 -> 2093
13:31:31:069 -> 2078
13:31:31:106 -> 2085
13:31:31:106 -> 2040
13:31:31:109 -> 2131
13:31:31:109 -> 2039
13:31:31:118 -> 2101
13:31:31:129 -> 2057
13:31:31:138 -> 2154
13:31:31:148 -> 2023
13:31:31:164 -> 2138
13:31:31:168 -> 2010
13:31:31:178 -> 2140
13:31:31:188 -> 2017
13:31:31:199 -> 2154
13:31:31:208 -> 2015
13:31:31:218 -> 2176
13:31:31:228 -> 2019
13:31:31:238 -> 2162
13:31:31:248 -> 2025
13:31:31:258 -> 2145
13:31:31:269 -> 2005
13:31:31:278 -> 2129
13:31:31:289 -> 1977
13:31:31:299 -> 2149
13:31:31:309 -> 1977
13:31:31:319 -> 2169
13:31:31:329 -> 2002
13:31:31:339 -> 2138
13:31:31:349 -> 2022
13:31:31:359 -> 2160
13:31:31:369 -> 2017
13:31:31:379 -> 2166
13:31:31:390 -> 2005
13:31:31:399 -> 2156
13:31:31:410 -> 1977
13:31:31:419 -> 2215
13:31:31:429 -> 1960
13:31:31:447 -> 2208
13:31:31:449 -> 1953
13:31:31:459 -> 2168
13:31:31:470 -> 1970
13:31:31:479 -> 2209
13:31:31:489 -> 1937
13:31:31:501 -> 2206
13:31:31:509 -> 1919
13:31:31:521 -> 2198
13:31:31:530 -> 1948
13:31:31:540 -> 2243
13:31:31:550 -> 1870
13:31:31:560 -> 2232
13:31:31:570 -> 1966
13:31:31:580 -> 2191
13:31:31:590 -> 1953
13:31:31:600 -> 2254
13:31:31:633 -> 1939
13:31:31:638 -> 2251
13:31:31:638 -> 1935
13:31:31:640 -> 2228
13:31:31:650 -> 1984
13:31:31:660 -> 2228
13:31:31:670 -> 1974
13:31:31:680 -> 2225
13:31:31:690 -> 1983
13:31:31:723 -> 2209
13:31:31:728 -> 1946
13:31:31:728 -> 2210
13:31:31:741 -> 1958
13:31:31:741 -> 2196
13:31:31:751 -> 1974
13:31:31:761 -> 2160
13:31:31:771 -> 1978
13:31:31:781 -> 2183
13:31:31:791 -> 1998
13:31:31:801 -> 2158
13:31:31:811 -> 1969
13:31:31:821 -> 2181
13:31:31:831 -> 1994
13:31:31:841 -> 2122
13:31:31:851 -> 1986
13:31:31:861 -> 2178
13:31:31:871 -> 2021
13:31:31:881 -> 2160
13:31:31:891 -> 1969
13:31:31:901 -> 2140
13:31:31:911 -> 1996
13:31:31:921 -> 2152
13:31:31:931 -> 1972
13:31:31:941 -> 2143
13:31:31:951 -> 2000
13:31:31:979 -> 2122
13:31:31:982 -> 2008
13:31:31:982 -> 2118
13:31:31:992 -> 2009
13:31:32:004 -> 2126
13:31:32:012 -> 1993
13:31:32:022 -> 2137
13:31:32:032 -> 1992
13:31:32:042 -> 2119
13:31:32:052 -> 2014
13:31:32:064 -> 2123
13:31:32:072 -> 1980
13:31:32:082 -> 2119
13:31:32:092 -> 2021
13:31:32:102 -> 2140
13:31:32:112 -> 2021
13:31:32:122 -> 2127
13:31:32:154 -> 2039
13:31:32:155 -> 2131
13:31:32:155 -> 2003
13:31:32:162 -> 2135
13:31:32:173 -> 2049
13:31:32:182 -> 2139
13:31:32:192 -> 2041
13:31:32:203 -> 2135
13:31:32:224 -> 2044
13:31:32:226 -> 2127
13:31:32:233 -> 2037
13:31:32:243 -> 2126
13:31:32:256 -> 2049
13:31:32:263 -> 2146
13:31:32:273 -> 2048
13:31:32:283 -> 2124
13:31:32:293 -> 2049
13:31:32:303 -> 2122
13:31:32:313 -> 2057
13:31:32:323 -> 2130
13:31:32:333 -> 2041
13:31:32:343 -> 2121
13:31:32:353 -> 2030
13:31:32:365 -> 2100
13:31:32:373 -> 2052
13:31:32:384 -> 2121
13:31:32:394 -> 2043
13:31:32:404 -> 2100
13:31:32:414 -> 2077
13:31:32:424 -> 2107
13:31:32:434 -> 2062
13:31:32:444 -> 2089
13:31:32:454 -> 2071
13:31:32:464 -> 2080
13:31:32:474 -> 2085
13:31:32:484 -> 2053
13:31:32:498 -> 2092
13:31:32:504 -> 2096
13:31:32:514 -> 2062
13:31:32:524 -> 2091
