10:54:00:847 -> 2111.00
10:54:00:857 -> 1949.00
10:54:00:868 -> 2109.00
10:54:00:879 -> 1933.00
10:54:00:890 -> 2113.00
10:54:00:900 -> 1884.00
10:54:00:911 -> 2109.00
10:54:00:921 -> 1883.00
10:54:00:931 -> 2073.00
10:54:00:942 -> 1950.00
10:54:00:952 -> 2030.00
10:54:00:963 -> 2012.00
10:54:00:974 -> 2041.00
10:54:00:984 -> 2036.00
10:54:00:994 -> 2012.00
10:54:01:004 -> 2056.00
10:54:01:016 -> 1983.00
10:54:01:026 -> 2121.00
10:54:01:037 -> 1903.00
10:54:01:047 -> 2098.00
10:54:01:057 -> 1942.00
10:54:01:068 -> 2155.00
10:54:01:078 -> 1947.00
10:54:01:104 -> 2135.00
10:54:01:104 -> 1953.00
10:54:01:109 -> 2133.00
10:54:01:119 -> 1933.00
10:54:01:129 -> 2104.00
10:54:01:140 -> 1857.00
10:54:01:150 -> 2099.00
10:54:01:160 -> 1885.00
10:54:01:171 -> 2094.00
10:54:01:181 -> 1950.00
10:54:01:191 -> 2096.00
10:54:01:202 -> 1972.00
10:54:01:212 -> 2052.00
10:54:01:222 -> 1981.00
10:54:01:233 -> 2060.00
10:54:01:243 -> 2020.00
10:54:01:253 -> 2034.00
10:54:01:264 -> 1997.00
10:54:01:275 -> 2016.00
10:54:01:284 -> 2061.00
10:54:01:295 -> 1985.00
10:54:01:305 -> 2064.00
10:54:01:315 -> 1997.00
10:54:01:325 -> 2086.00
10:54:01:336 -> 1930.00
10:54:01:346 -> 2104.00
10:54:01:356 -> 1924.00
10:54:01:367 -> 2107.00
10:54:01:377 -> 1941.00
10:54:01:388 -> 2147.00
10:54:01:398 -> 1925.00
10:54:01:408 -> 2116.00
10:54:01:419 -> 1927.00
10:54:01:429 -> 2133.00
10:54:01:451 -> 2047.00
10:54:01:451 -> 2108.00
10:54:01:460 -> 1862.00
10:54:01:470 -> 2124.00
10:54:01:480 -> 1872.00
10:54:01:491 -> 2113.00
10:54:01:501 -> 1966.00
10:54:01:513 -> 2079.00
10:54:01:522 -> 1999.00
10:54:01:532 -> 2044.00
10:54:01:543 -> 2024.00
10:54:01:553 -> 2050.00
10:54:01:563 -> 2044.00
10:54:01:573 -> 2010.00
10:54:01:584 -> 2039.00
10:54:01:594 -> 1978.00
10:54:01:623 -> 2083.00
10:54:01:624 -> 1989.00
10:54:01:625 -> 2018.00
10:54:01:635 -> 1960.00
10:54:01:646 -> 2050.00
10:54:01:656 -> 1952.00
10:54:01:666 -> 2025.00
10:54:01:676 -> 1955.00
10:54:01:687 -> 2094.00
10:54:01:697 -> 1933.00
10:54:01:708 -> 2160.00
10:54:01:718 -> 1946.00
10:54:01:728 -> 2131.00
10:54:01:738 -> 1957.00
10:54:01:749 -> 2156.00
10:54:01:759 -> 1936.00
10:54:01:769 -> 2166.00
10:54:01:780 -> 2003.00
10:54:01:790 -> 2078.00
10:54:01:800 -> 1873.00
10:54:01:810 -> 2147.00
10:54:01:821 -> 1870.00
10:54:01:831 -> 2100.00
10:54:01:841 -> 1896.00
10:54:01:852 -> 1996.00
10:54:01:863 -> 1978.00
10:54:01:872 -> 2076.00
10:54:01:883 -> 1999.00
10:54:01:893 -> 1947.00
10:54:01:903 -> 2119.00
10:54:01:913 -> 2034.00
10:54:01:924 -> 2191.00
10:54:01:934 -> 1998.00
10:54:01:945 -> 2039.00
10:54:01:956 -> 1926.00
10:54:01:965 -> 2048.00
10:54:01:976 -> 1910.00
10:54:01:991 -> 2014.00
10:54:01:996 -> 2011.00
10:54:02:007 -> 2210.00
10:54:02:018 -> 1888.00
10:54:02:027 -> 2188.00
10:54:02:038 -> 1999.00
10:54:02:048 -> 2124.00
10:54:02:058 -> 1923.00
10:54:02:068 -> 2174.00
10:54:02:079 -> 1980.00
10:54:02:089 -> 2107.00
10:54:02:099 -> 1888.00
10:54:02:110 -> 2124.00
10:54:02:120 -> 1853.00
10:54:02:138 -> 2164.00
10:54:02:140 -> 1975.00
10:54:02:151 -> 2104.00
10:54:02:161 -> 1922.00
10:54:02:171 -> 2074.00
10:54:02:181 -> 1933.00
10:54:02:192 -> 2037.00
10:54:02:202 -> 1991.00
10:54:02:212 -> 2164.00
10:54:02:222 -> 1988.00
10:54:02:233 -> 1991.00
10:54:02:243 -> 2049.00
10:54:02:254 -> 2030.00
10:54:02:264 -> 2067.00
10:54:02:274 -> 1948.00
10:54:02:284 -> 2087.00
10:54:02:295 -> 1893.00
10:54:02:305 -> 2087.00
10:54:02:316 -> 1963.00
10:54:02:347 -> 2042.00
10:54:02:347 -> 1973.00
10:54:02:347 -> 2113.00
10:54:02:357 -> 1916.00
10:54:02:367 -> 2080.00
10:54:02:377 -> 1957.00
10:54:02:387 -> 2132.00
10:54:02:398 -> 1857.00
10:54:02:408 -> 2188.00
10:54:02:418 -> 1893.00
10:54:02:429 -> 2188.00
10:54:02:439 -> 1972.00
10:54:02:450 -> 2082.00
10:54:02:460 -> 1787.00
10:54:02:470 -> 2154.00
10:54:02:481 -> 1929.00
10:54:02:491 -> 2071.00
10:54:02:501 -> 1953.00
10:54:02:512 -> 2121.00
10:54:02:522 -> 1994.00
10:54:02:532 -> 2045.00
10:54:02:543 -> 2046.00
10:54:02:553 -> 2044.00
10:54:02:563 -> 2025.00
10:54:02:574 -> 1981.00
10:54:02:584 -> 2079.00
10:54:02:595 -> 1959.00
10:54:02:606 -> 2071.00
10:54:02:615 -> 1965.00
10:54:02:626 -> 2063.00
10:54:02:637 -> 1931.00
10:54:02:665 -> 2091.00
10:54:02:665 -> 1931.00
10:54:02:667 -> 2130.00
10:54:02:677 -> 1862.00
10:54:02:688 -> 2148.00
10:54:02:698 -> 1920.00
10:54:02:708 -> 2188.00
10:54:02:719 -> 1894.00
10:54:02:732 -> 2133.00
10:54:02:739 -> 1835.00
10:54:02:750 -> 2108.00
10:54:02:760 -> 1860.00
10:54:02:770 -> 2126.00
10:54:02:780 -> 1938.00
10:54:02:792 -> 2114.00
10:54:02:802 -> 1950.00
10:54:02:812 -> 2084.00
10:54:02:822 -> 2018.00
10:54:02:832 -> 2063.00
10:54:02:843 -> 2058.00
10:54:02:853 -> 2035.00
10:54:02:863 -> 2034.00
10:54:02:874 -> 2004.00
10:54:02:884 -> 2080.00
10:54:02:894 -> 2012.00
10:54:02:905 -> 2065.00
10:54:02:915 -> 1950.00
10:54:02:925 -> 2079.00
10:54:02:936 -> 1933.00
10:54:02:946 -> 2106.00
10:54:02:956 -> 1906.00
10:54:02:967 -> 2135.00
10:54:02:982 -> 1938.00
10:54:02:988 -> 2145.00
10:54:02:998 -> 1910.00
10:54:03:008 -> 2184.00
10:54:03:019 -> 1905.00
10:54:03:029 -> 2136.00
10:54:03:040 -> 1859.00
10:54:03:050 -> 2116.00
10:54:03:060 -> 1920.00
10:54:03:070 -> 2107.00
10:54:03:081 -> 1944.00
10:54:03:091 -> 2147.00
10:54:03:101 -> 1947.00
10:54:03:112 -> 2093.00
10:54:03:122 -> 1968.00
10:54:03:132 -> 2038.00
10:54:03:143 -> 2016.00
10:54:03:153 -> 2029.00
10:54:03:163 -> 2045.00
10:54:03:180 -> 2011.00
10:54:03:184 -> 2066.00
10:54:03:194 -> 1996.00
10:54:03:205 -> 2069.00
10:54:03:215 -> 1986.00
10:54:03:230 -> 2070.00
10:54:03:236 -> 1960.00
10:54:03:246 -> 2110.00
10:54:03:256 -> 1925.00
10:54:03:267 -> 2159.00
10:54:03:277 -> 1920.00
10:54:03:287 -> 2143.00
10:54:03:298 -> 1918.00
10:54:03:308 -> 2132.00
10:54:03:319 -> 1920.00
10:54:03:329 -> 2130.00
10:54:03:339 -> 1876.00
10:54:03:352 -> 2123.00
10:54:03:385 -> 1870.00
10:54:03:385 -> 2088.00
10:54:03:387 -> 1924.00
10:54:03:398 -> 1922.00
10:54:03:408 -> 2169.00
10:54:03:418 -> 1904.00
10:54:03:429 -> 2148.00
10:54:03:439 -> 1825.00
10:54:03:449 -> 2139.00
10:54:03:459 -> 1816.00
10:54:03:470 -> 2104.00
10:54:03:480 -> 1923.00
10:54:03:490 -> 2105.00
10:54:03:501 -> 1950.00
10:54:03:511 -> 2070.00
10:54:03:522 -> 1973.00
10:54:03:532 -> 2064.00
10:54:03:542 -> 1958.00
10:54:03:553 -> 2025.00
10:54:03:563 -> 2059.00
10:54:03:574 -> 1985.00
10:54:03:584 -> 2055.00
10:54:03:594 -> 1972.00
10:54:03:605 -> 2130.00
10:54:03:615 -> 1963.00
10:54:03:625 -> 2062.00
10:54:03:636 -> 1961.00
10:54:03:646 -> 2083.00
10:54:03:656 -> 1930.00
10:54:03:667 -> 2135.00
10:54:03:677 -> 1931.00
10:54:03:706 -> 2130.00
10:54:03:706 -> 1920.00
10:54:03:708 -> 2129.00
10:54:03:718 -> 1887.00
10:54:03:728 -> 2169.00
10:54:03:739 -> 2004.00
10:54:03:749 -> 2110.00
10:54:03:759 -> 1833.00
10:54:03:770 -> 2110.00
10:54:03:780 -> 1920.00
10:54:03:790 -> 2094.00
10:54:03:800 -> 1933.00
10:54:03:811 -> 2105.00
10:54:03:821 -> 1943.00
10:54:03:832 -> 2060.00
10:54:03:842 -> 1982.00
10:54:03:852 -> 2070.00
10:54:03:863 -> 2003.00
10:54:03:873 -> 2037.00
10:54:03:883 -> 2041.00
10:54:03:893 -> 2018.00
10:54:03:904 -> 2043.00
10:54:03:914 -> 1970.00
10:54:03:925 -> 2079.00
10:54:03:935 -> 1937.00
10:54:03:945 -> 2066.00
10:54:03:956 -> 1943.00
10:54:03:966 -> 2087.00
10:54:03:976 -> 1893.00
10:54:03:986 -> 2124.00
10:54:03:997 -> 1949.00
10:54:04:007 -> 2190.00
10:54:04:017 -> 1844.00
10:54:04:028 -> 2133.00
10:54:04:038 -> 1858.00
10:54:04:048 -> 2101.00
10:54:04:059 -> 1958.00
10:54:04:069 -> 2200.00
10:54:04:079 -> 1951.00
10:54:04:090 -> 2045.00
10:54:04:100 -> 1902.00
10:54:04:110 -> 2194.00
10:54:04:121 -> 1959.00
10:54:04:131 -> 2088.00
10:54:04:141 -> 1999.00
10:54:04:151 -> 2162.00
10:54:04:166 -> 1939.00
10:54:04:172 -> 2151.00
10:54:04:182 -> 1893.00
10:54:04:193 -> 2004.00
10:54:04:203 -> 2105.00
10:54:04:221 -> 1932.00
10:54:04:255 -> 2041.00
10:54:04:255 -> 1918.00
10:54:04:255 -> 2054.00
10:54:04:255 -> 1922.00
10:54:04:265 -> 2088.00
10:54:04:275 -> 1906.00
10:54:04:285 -> 2166.00
10:54:04:296 -> 1998.00
10:54:04:307 -> 2145.00
10:54:04:317 -> 1905.00
10:54:04:327 -> 2109.00
10:54:04:338 -> 1904.00
10:54:04:348 -> 2100.00
10:54:04:361 -> 1909.00
10:54:04:369 -> 2031.00
10:54:04:379 -> 1805.00
10:54:04:389 -> 2125.00
10:54:04:400 -> 1862.00
10:54:04:410 -> 2159.00
10:54:04:420 -> 1957.00
10:54:04:430 -> 2083.00
10:54:04:441 -> 1928.00
10:54:04:451 -> 2088.00
10:54:04:462 -> 2046.00
10:54:04:472 -> 2017.00
10:54:04:482 -> 2037.00
10:54:04:493 -> 2065.00
10:54:04:503 -> 1987.00
10:54:04:513 -> 2018.00
10:54:04:524 -> 2093.00
10:54:04:534 -> 1891.00
10:54:04:544 -> 2075.00
10:54:04:554 -> 1995.00
10:54:04:565 -> 2038.00
10:54:04:575 -> 1927.00
10:54:04:585 -> 2077.00
10:54:04:596 -> 1913.00
10:54:04:606 -> 2151.00
10:54:04:617 -> 1868.00
10:54:04:627 -> 2183.00
10:54:04:641 -> 1917.00
10:54:04:647 -> 2150.00
10:54:04:658 -> 1910.00
10:54:04:668 -> 2127.00
10:54:04:678 -> 2031.00
10:54:04:689 -> 2190.00
10:54:04:699 -> 1777.00
10:54:04:709 -> 2134.00
10:54:04:719 -> 1911.00
10:54:04:748 -> 2073.00
10:54:04:749 -> 1931.00
10:54:04:750 -> 2135.00
10:54:04:761 -> 1994.00
10:54:04:771 -> 2084.00
10:54:04:781 -> 2004.00
10:54:04:792 -> 2074.00
10:54:04:803 -> 1993.00
10:54:04:812 -> 2027.00
10:54:04:823 -> 2049.00
10:54:04:833 -> 2007.00
10:54:04:844 -> 2062.00
10:54:04:854 -> 2020.00
10:54:04:864 -> 2109.00
10:54:04:874 -> 1957.00
10:54:04:885 -> 2121.00
10:54:04:895 -> 1932.00
10:54:04:905 -> 2101.00
10:54:04:916 -> 1937.00
10:54:04:930 -> 2130.00
10:54:04:938 -> 1893.00
10:54:04:948 -> 2155.00
10:54:04:958 -> 1971.00
10:54:04:969 -> 2128.00
10:54:04:979 -> 1848.00
10:54:04:989 -> 2087.00
10:54:05:000 -> 1901.00
10:54:05:010 -> 2097.00
10:54:05:025 -> 1950.00
10:54:05:031 -> 2107.00
10:54:05:041 -> 1922.00
10:54:05:051 -> 2068.00
10:54:05:062 -> 2019.00
10:54:05:072 -> 2036.00
10:54:05:082 -> 2039.00
10:54:05:093 -> 2037.00
10:54:05:103 -> 2065.00
10:54:05:113 -> 1969.00
10:54:05:123 -> 2083.00
10:54:05:134 -> 2003.00
10:54:05:144 -> 2077.00
10:54:05:155 -> 1930.00
10:54:05:165 -> 2099.00
10:54:05:175 -> 1937.00
10:54:05:185 -> 2101.00
10:54:05:195 -> 1923.00
10:54:05:206 -> 2129.00
10:54:05:216 -> 1933.00
10:54:05:227 -> 2175.00
10:54:05:237 -> 1915.00
10:54:05:286 -> 2169.00
10:54:05:287 -> 1920.00
10:54:05:287 -> 2189.00
10:54:05:287 -> 1879.00
10:54:05:289 -> 2126.00
10:54:05:299 -> 1893.00
10:54:05:309 -> 2097.00
10:54:05:320 -> 1918.00
10:54:05:330 -> 2096.00
10:54:05:344 -> 1966.00
10:54:05:351 -> 2111.00
10:54:05:361 -> 1974.00
10:54:05:371 -> 2087.00
10:54:05:381 -> 2010.00
10:54:05:392 -> 2031.00
10:54:05:402 -> 2026.00
10:54:05:412 -> 2024.00
10:54:05:423 -> 2055.00
10:54:05:433 -> 1996.00
10:54:05:443 -> 2080.00
10:54:05:453 -> 2003.00
10:54:05:464 -> 2103.00
10:54:05:474 -> 1943.00
10:54:05:484 -> 2107.00
10:54:05:498 -> 1916.00
10:54:05:505 -> 2100.00
10:54:05:515 -> 1926.00
10:54:05:525 -> 2129.00
10:54:05:536 -> 1935.00
10:54:05:546 -> 2141.00
10:54:05:556 -> 1916.00
10:54:05:567 -> 2173.00
10:54:05:577 -> 1912.00
10:54:05:587 -> 2136.00
10:54:05:598 -> 1894.00
10:54:05:608 -> 2145.00
10:54:05:618 -> 1851.00
10:54:05:629 -> 2106.00
10:54:05:639 -> 1888.00
10:54:05:650 -> 2087.00
10:54:05:660 -> 1947.00
10:54:05:670 -> 2099.00
10:54:05:681 -> 1971.00
10:54:05:691 -> 2064.00
10:54:05:701 -> 1998.00
10:54:05:712 -> 2052.00
10:54:05:722 -> 2001.00
10:54:05:733 -> 1989.00
10:54:05:744 -> 2056.00
10:54:05:753 -> 1995.00
10:54:05:763 -> 2085.00
10:54:05:782 -> 1953.00
10:54:05:784 -> 2091.00
10:54:05:795 -> 1918.00
10:54:05:805 -> 2095.00
10:54:05:815 -> 1939.00
10:54:05:826 -> 2111.00
10:54:05:836 -> 1924.00
10:54:05:846 -> 2131.00
10:54:05:856 -> 1917.00
10:54:05:867 -> 2135.00
10:54:05:877 -> 1924.00
10:54:05:887 -> 2145.00
10:54:05:898 -> 1925.00
10:54:05:908 -> 2130.00
10:54:05:918 -> 1823.00
10:54:05:929 -> 2093.00
10:54:05:939 -> 1928.00
10:54:05:949 -> 2111.00
10:54:05:960 -> 1934.00
10:54:05:970 -> 2083.00
10:54:05:980 -> 1996.00
10:54:05:991 -> 2073.00
10:54:06:001 -> 1993.00
10:54:06:012 -> 2034.00
10:54:06:022 -> 2001.00
10:54:06:033 -> 1963.00
10:54:06:043 -> 2085.00
10:54:06:053 -> 1972.00
10:54:06:064 -> 2039.00
10:54:06:074 -> 1948.00
10:54:06:104 -> 2105.00
10:54:06:113 -> 1916.00
10:54:06:113 -> 2100.00
10:54:06:115 -> 1953.00
10:54:06:126 -> 2134.00
10:54:06:136 -> 1917.00
10:54:06:146 -> 2167.00
10:54:06:156 -> 1897.00
10:54:06:167 -> 2180.00
10:54:06:177 -> 1895.00
10:54:06:187 -> 2152.00
10:54:06:200 -> 1948.00
10:54:06:208 -> 2115.00
10:54:06:218 -> 1883.00
10:54:06:229 -> 2100.00
10:54:06:239 -> 1950.00
10:54:06:250 -> 2071.00
10:54:06:260 -> 1960.00
10:54:06:270 -> 2087.00
10:54:06:310 -> 1956.00
10:54:06:310 -> 2058.00
10:54:06:310 -> 2029.00
10:54:06:312 -> 1985.00
10:54:06:322 -> 2038.00
10:54:06:333 -> 1978.00
10:54:06:343 -> 2068.00
10:54:06:353 -> 1963.00
10:54:06:364 -> 2093.00
10:54:06:374 -> 1950.00
10:54:06:384 -> 2096.00
10:54:06:395 -> 1939.00
10:54:06:405 -> 2136.00
10:54:06:416 -> 1916.00
10:54:06:426 -> 2116.00
10:54:06:436 -> 1907.00
10:54:06:447 -> 2125.00
10:54:06:457 -> 1914.00
10:54:06:467 -> 2121.00
10:54:06:478 -> 1968.00
10:54:06:488 -> 2114.00
10:54:06:498 -> 1856.00
10:54:06:508 -> 2143.00
10:54:06:519 -> 1883.00
10:54:06:529 -> 2089.00
10:54:06:539 -> 1959.00
10:54:06:549 -> 2115.00
10:54:06:560 -> 1969.00
10:54:06:570 -> 2054.00
10:54:06:580 -> 1984.00
10:54:06:591 -> 2025.00
10:54:06:602 -> 2033.00
10:54:06:613 -> 2026.00
10:54:06:622 -> 2040.00
10:54:06:632 -> 2018.00
10:54:06:643 -> 2081.00
10:54:06:653 -> 1952.00
10:54:06:663 -> 2053.00
10:54:06:673 -> 1972.00
10:54:06:684 -> 2126.00
10:54:06:694 -> 1946.00
10:54:06:705 -> 2107.00
10:54:06:715 -> 1909.00
10:54:06:730 -> 2146.00
10:54:06:735 -> 1897.00
10:54:06:746 -> 2171.00
10:54:06:756 -> 1915.00
10:54:06:766 -> 2113.00
10:54:06:777 -> 1880.00
10:54:06:787 -> 2150.00
10:54:06:797 -> 1897.00
10:54:06:808 -> 2116.00
10:54:06:825 -> 1905.00
10:54:06:828 -> 2110.00
10:54:06:839 -> 1928.00
10:54:06:849 -> 2087.00
10:54:06:860 -> 1941.00
10:54:06:870 -> 2051.00
10:54:06:881 -> 1997.00
10:54:06:891 -> 2052.00
10:54:06:901 -> 2024.00
10:54:06:911 -> 2013.00
10:54:06:922 -> 2018.00
10:54:06:932 -> 1957.00
10:54:06:942 -> 2064.00
10:54:06:953 -> 1954.00
10:54:06:963 -> 2048.00
10:54:06:973 -> 1957.00
10:54:06:984 -> 2101.00
10:54:06:994 -> 1913.00
10:54:07:004 -> 2118.00
10:54:07:015 -> 1926.00
10:54:07:025 -> 2153.00
10:54:07:035 -> 1914.00
10:54:07:046 -> 2141.00
10:54:07:056 -> 1908.00
10:54:07:066 -> 2141.00
10:54:07:077 -> 1897.00
10:54:07:087 -> 2121.00
10:54:07:097 -> 1860.00
10:54:07:108 -> 2141.00
10:54:07:118 -> 1882.00
10:54:07:128 -> 2125.00
10:54:07:144 -> 1949.00
10:54:07:149 -> 2093.00
10:54:07:159 -> 1961.00
10:54:07:169 -> 2060.00
10:54:07:180 -> 1953.00
10:54:07:190 -> 2058.00
10:54:07:200 -> 1984.00
10:54:07:235 -> 2046.00
10:54:07:241 -> 2019.00
10:54:07:241 -> 2028.00
10:54:07:241 -> 2048.00
10:54:07:252 -> 2003.00
10:54:07:262 -> 2076.00
10:54:07:272 -> 1986.00
10:54:07:282 -> 2052.00
10:54:07:293 -> 1953.00
10:54:07:303 -> 2108.00
10:54:07:313 -> 1932.00
10:54:07:324 -> 2079.00
10:54:07:343 -> 1926.00
10:54:07:344 -> 2122.00
10:54:07:355 -> 1897.00
10:54:07:365 -> 2153.00
10:54:07:375 -> 1907.00
10:54:07:386 -> 2149.00
10:54:07:396 -> 1899.00
10:54:07:406 -> 2141.00
10:54:07:417 -> 2040.00
10:54:07:427 -> 2123.00
10:54:07:437 -> 1830.00
10:54:07:451 -> 2126.00
10:54:07:458 -> 1939.00
10:54:07:468 -> 2098.00
10:54:07:479 -> 1956.00
10:54:07:489 -> 2085.00
10:54:07:499 -> 1974.00
10:54:07:510 -> 2073.00
10:54:07:520 -> 1974.0010:54:07:530 -> 2048.00
10:54:07:546 -> 2036.00
10:54:07:551 -> 2004.00
10:54:07:561 -> 2037.00
10:54:07:572 -> 1997.00
10:54:07:582 -> 2099.00
10:54:07:592 -> 1910.00
10:54:07:603 -> 2090.00
10:54:07:613 -> 1886.00
10:54:07:623 -> 2133.00
10:54:07:634 -> 1884.00
10:54:07:644 -> 2122.00
10:54:07:654 -> 1774.00
10:54:07:665 -> 2117.00
10:54:07:675 -> 1985.00
10:54:07:686 -> 2092.00
10:54:07:696 -> 1972.00
10:54:07:706 -> 2178.00
10:54:07:716 -> 1885.00
10:54:07:727 -> 2191.00
10:54:07:737 -> 1932.00
10:54:07:747 -> 1974.00
10:54:07:758 -> 2015.00
10:54:07:768 -> 2156.00
10:54:07:778 -> 1980.00
10:54:07:789 -> 2062.00
10:54:07:799 -> 1867.00
10:54:07:810 -> 2064.00
10:54:07:821 -> 1949.00
10:54:07:831 -> 2010.00
10:54:07:841 -> 2085.00
10:54:07:856 -> 2011.00
10:54:07:862 -> 2084.00
10:54:07:873 -> 1931.00
10:54:07:883 -> 2091.00
10:54:07:894 -> 1971.00
10:54:07:904 -> 1964.00
10:54:07:914 -> 1890.00
10:54:07:924 -> 2043.00
10:54:07:935 -> 2013.00
10:54:07:945 -> 2156.00
10:54:07:955 -> 1963.00
10:54:07:966 -> 2209.00
10:54:07:976 -> 1922.00
10:54:07:987 -> 2139.00
10:54:07:997 -> 1999.00
10:54:08:007 -> 2177.00
10:54:08:018 -> 1833.00
10:54:08:028 -> 2107.00
10:54:08:038 -> 1868.00
10:54:08:049 -> 2060.00
10:54:08:059 -> 1958.00
10:54:08:070 -> 2051.00
10:54:08:080 -> 1999.00
10:54:08:090 -> 2025.00
10:54:08:100 -> 2054.00
10:54:08:111 -> 1985.00
10:54:08:125 -> 2030.00
10:54:08:143 -> 1949.00
10:54:08:157 -> 2062.00
10:54:08:158 -> 1975.00
10:54:08:162 -> 2093.00
10:54:08:172 -> 2003.00
10:54:08:183 -> 2046.00
10:54:08:193 -> 1960.00
10:54:08:203 -> 2037.00
10:54:08:214 -> 1965.00
10:54:08:224 -> 2145.00
10:54:08:234 -> 1879.00
10:54:08:245 -> 2162.00
10:54:08:265 -> 2151.00
10:54:08:275 -> 1921.00
10:54:08:255 -> 1929.00
10:54:08:286 -> 2071.00
10:54:08:299 -> 1935.00
10:54:08:306 -> 2095.00
10:54:08:317 -> 2022.00
10:54:08:327 -> 2115.00
10:54:08:337 -> 1827.00
10:54:08:347 -> 2159.00
10:54:08:372 -> 1916.00
10:54:08:373 -> 2082.00
10:54:08:378 -> 1916.00
10:54:08:389 -> 2108.00
10:54:08:399 -> 1966.00
10:54:08:409 -> 2078.00
10:54:08:420 -> 2003.00
10:54:08:430 -> 2002.00
10:54:08:440 -> 2049.00
10:54:08:450 -> 2013.00
10:54:08:461 -> 2062.00
10:54:08:471 -> 1995.00
10:54:08:481 -> 2035.00
10:54:08:492 -> 2011.00
10:54:08:502 -> 2109.00
10:54:08:512 -> 1948.00
10:54:08:523 -> 2081.00
10:54:08:533 -> 1966.00
10:54:08:547 -> 2070.00
10:54:08:554 -> 1948.00
10:54:08:564 -> 2121.00
10:54:08:574 -> 1949.00
10:54:08:584 -> 2155.00
10:54:08:595 -> 1952.00
10:54:08:605 -> 2173.00
10:54:08:616 -> 1900.00
10:54:08:626 -> 2111.00
10:54:08:636 -> 2022.00
10:54:08:647 -> 2107.00
10:54:08:657 -> 1827.00
10:54:08:667 -> 2140.00
10:54:08:678 -> 1873.00
10:54:08:688 -> 2120.00
10:54:08:698 -> 1955.00
10:54:08:708 -> 2103.00
10:54:08:719 -> 1932.00
10:54:08:729 -> 2088.00
10:54:08:739 -> 2000.00
10:54:08:750 -> 2058.00
10:54:08:760 -> 2007.00
10:54:08:770 -> 2032.00
10:54:08:781 -> 2073.00
10:54:08:791 -> 1990.00
10:54:08:802 -> 2055.00
10:54:08:812 -> 1956.00
10:54:08:823 -> 2098.00
10:54:08:833 -> 1924.00
10:54:08:843 -> 2137.00
10:54:08:854 -> 1909.00
10:54:08:864 -> 2120.00
10:54:08:889 -> 1937.00
10:54:08:890 -> 2140.00
10:54:08:895 -> 1947.00
10:54:08:905 -> 2147.00
10:54:08:916 -> 1929.00
10:54:08:926 -> 2136.00
10:54:08:936 -> 2013.00
10:54:08:947 -> 2126.00
10:54:08:957 -> 1809.00
10:54:08:967 -> 2117.00
10:54:08:978 -> 1924.00
10:54:08:988 -> 2103.00
10:54:08:998 -> 1966.00
10:54:09:009 -> 2065.00
10:54:09:019 -> 1952.00
10:54:09:029 -> 2070.00
10:54:09:042 -> 1995.00
10:54:09:050 -> 2033.00
10:54:09:060 -> 2006.00
10:54:09:071 -> 2022.00
10:54:09:081 -> 2020.00
10:54:09:091 -> 1964.00
10:54:09:101 -> 2055.00
10:54:09:112 -> 1968.00
10:54:09:122 -> 2079.00
10:54:09:132 -> 1963.00
10:54:09:143 -> 2104.00
10:54:09:153 -> 1946.00
10:54:09:163 -> 2087.00
10:54:09:174 -> 1942.00
10:54:09:205 -> 2137.00
10:54:09:205 -> 1899.00
10:54:09:205 -> 2125.00
10:54:09:215 -> 1925.00
10:54:09:225 -> 2144.00
10:54:09:236 -> 1894.00
10:54:09:246 -> 2145.00
10:54:09:256 -> 1950.00
10:54:09:267 -> 2130.00
10:54:09:277 -> 1838.00
10:54:09:287 -> 2098.00
10:54:09:298 -> 1933.00
10:54:09:309 -> 2100.00
10:54:09:318 -> 1919.00
10:54:09:329 -> 2105.00
10:54:09:339 -> 1972.00
10:54:09:349 -> 2108.00
10:54:09:360 -> 1980.00
10:54:09:370 -> 2024.00
10:54:09:380 -> 2008.00
10:54:09:406 -> 1999.00
10:54:09:406 -> 2052.00
10:54:09:411 -> 2007.00
10:54:09:422 -> 2085.00
10:54:09:432 -> 1941.00
10:54:09:443 -> 2084.00
10:54:09:453 -> 1927.00
10:54:09:463 -> 2093.00
10:54:09:474 -> 1942.00
10:54:09:484 -> 2122.00
10:54:09:494 -> 1953.00
10:54:09:504 -> 2137.00
10:54:09:515 -> 1927.00
10:54:09:525 -> 2152.00
10:54:09:537 -> 1906.00
10:54:09:546 -> 2174.00
10:54:09:556 -> 1857.00
10:54:09:566 -> 2121.00
10:54:09:576 -> 1843.00
10:54:09:587 -> 2132.00
10:54:09:597 -> 1901.00
10:54:09:607 -> 2113.00
10:54:09:618 -> 1918.00
10:54:09:628 -> 2105.00
10:54:09:638 -> 1947.00
10:54:09:649 -> 2049.00
10:54:09:659 -> 1996.00
10:54:09:669 -> 2075.00
10:54:09:679 -> 1979.00
10:54:09:690 -> 2051.00
10:54:09:702 -> 2001.00
10:54:09:710 -> 2041.00
10:54:09:721 -> 2056.00
10:54:09:731 -> 2008.00
10:54:09:741 -> 2090.00
10:54:09:752 -> 1951.00
10:54:09:762 -> 2088.00
10:54:09:772 -> 1964.00
10:54:09:783 -> 2095.00
10:54:09:793 -> 1950.00
10:54:09:804 -> 2094.00
10:54:09:814 -> 1937.00
10:54:09:824 -> 2131.00
10:54:09:834 -> 1920.00
10:54:09:845 -> 2113.00
10:54:09:855 -> 1943.00
10:54:09:866 -> 2138.00
10:54:09:876 -> 1904.00
10:54:09:886 -> 2155.00
10:54:09:896 -> 1835.00
10:54:09:922 -> 2099.00
10:54:09:923 -> 1915.00
10:54:09:927 -> 2108.00
10:54:09:938 -> 1914.00
10:54:09:948 -> 2103.00
10:54:09:959 -> 1952.00
10:54:09:969 -> 2050.00
10:54:09:979 -> 1987.00
10:54:09:990 -> 2063.00
10:54:10:000 -> 1965.00
10:54:10:010 -> 2017.00
10:54:10:020 -> 2036.00
10:54:10:031 -> 1992.00
10:54:10:041 -> 2057.00
10:54:10:051 -> 1989.00
10:54:10:062 -> 2090.00
10:54:10:072 -> 1943.00
10:54:10:082 -> 2105.00
10:54:10:093 -> 1938.00
10:54:10:103 -> 2082.00
10:54:10:113 -> 1958.00
10:54:10:124 -> 2134.00
10:54:10:134 -> 1878.00
10:54:10:144 -> 2133.00
10:54:10:155 -> 1907.00
10:54:10:165 -> 2096.00
10:54:10:175 -> 1916.00
10:54:10:185 -> 2144.00
10:54:10:196 -> 2029.00
10:54:10:206 -> 2120.00
10:54:10:216 -> 1844.00
10:54:10:227 -> 2133.00
10:54:10:237 -> 1916.00
10:54:10:247 -> 2089.00
10:54:10:258 -> 1932.00
10:54:10:268 -> 2105.00
10:54:10:278 -> 1932.00
10:54:10:291 -> 2036.00
10:54:10:299 -> 1969.00
10:54:10:309 -> 2028.00
10:54:10:319 -> 2004.00
10:54:10:330 -> 2038.00
10:54:10:340 -> 2029.00
10:54:10:350 -> 2005.00
10:54:10:386 -> 2023.00
10:54:10:387 -> 1992.00
10:54:10:387 -> 2048.00
10:54:10:392 -> 1962.00
10:54:10:402 -> 2080.00
10:54:10:412 -> 1990.00
10:54:10:436 -> 2055.00
10:54:10:437 -> 1937.00
10:54:10:443 -> 2133.00
10:54:10:453 -> 1910.00
10:54:10:464 -> 2134.00
10:54:10:474 -> 1940.00
10:54:10:484 -> 2176.00
10:54:10:495 -> 1921.00
10:54:10:505 -> 2169.00
10:54:10:515 -> 1899.00
10:54:10:526 -> 2154.00
10:54:10:536 -> 1902.00
10:54:10:546 -> 2103.00
10:54:10:557 -> 1836.00
10:54:10:567 -> 2142.00
10:54:10:577 -> 1934.00
10:54:10:588 -> 2118.00
10:54:10:598 -> 1955.00
10:54:10:608 -> 2039.00
10:54:10:619 -> 1987.00
10:54:10:629 -> 2035.00
10:54:10:639 -> 1960.00
10:54:10:650 -> 2049.00
10:54:10:660 -> 2055.00
10:54:10:670 -> 1992.00
10:54:10:680 -> 2068.00
10:54:10:691 -> 1981.00
10:54:10:701 -> 2062.00
10:54:10:712 -> 1952.00
10:54:10:722 -> 2075.00
10:54:10:732 -> 1948.00
10:54:10:742 -> 2091.00
10:54:10:753 -> 1942.00
10:54:10:763 -> 2063.00
10:54:10:773 -> 1919.00
10:54:10:784 -> 2109.00
10:54:10:794 -> 1904.00
10:54:10:804 -> 2151.00
10:54:10:815 -> 1909.00
10:54:10:825 -> 2161.00
10:54:10:835 -> 1924.00
10:54:10:846 -> 2158.00
10:54:10:856 -> 1888.00
10:54:10:866 -> 2120.00
10:54:10:877 -> 1908.00
10:54:10:887 -> 2056.00
10:54:10:897 -> 1960.00
10:54:10:908 -> 2117.00
10:54:10:918 -> 1925.00
10:54:10:928 -> 2086.00
10:54:10:957 -> 2007.00
10:54:10:957 -> 2069.00
10:54:10:959 -> 1998.00
10:54:10:970 -> 2021.00
10:54:10:980 -> 2066.00
10:54:10:990 -> 2007.00
10:54:11:001 -> 2059.00
10:54:11:011 -> 1931.00
10:54:11:021 -> 2088.00
10:54:11:032 -> 1934.00
10:54:11:042 -> 2066.00
10:54:11:052 -> 1968.00
10:54:11:063 -> 2056.00
10:54:11:073 -> 1939.00
10:54:11:083 -> 2128.00
10:54:11:093 -> 1897.00
10:54:11:104 -> 2124.00
10:54:11:114 -> 1916.00
10:54:11:125 -> 2140.00
10:54:11:135 -> 1933.00
10:54:11:145 -> 2119.00
10:54:11:155 -> 1908.00
10:54:11:169 -> 2123.00
10:54:11:184 -> 2019.00
10:54:11:190 -> 2024.00
10:54:11:200 -> 2032.00
10:54:11:210 -> 2035.00
10:54:11:221 -> 2050.00
10:54:11:231 -> 1997.00
10:54:11:241 -> 2075.00
10:54:11:251 -> 1976.00
10:54:11:261 -> 2084.00
10:54:11:272 -> 1968.00
10:54:11:292 -> 1937.00
10:54:11:282 -> 2117.00
10:54:11:303 -> 2109.00
10:54:11:313 -> 1925.00
10:54:11:323 -> 2134.00
10:54:11:334 -> 1931.00
10:54:11:344 -> 2111.00
10:54:11:354 -> 1920.00
10:54:11:365 -> 2143.00
10:54:11:375 -> 1927.00
10:54:11:385 -> 2137.00
10:54:11:401 -> 2003.00
10:54:11:406 -> 2078.00
10:54:11:416 -> 1878.00
10:54:11:427 -> 2121.00
10:54:11:437 -> 1882.00
10:54:11:447 -> 2091.00
10:54:11:495 -> 1952.00
10:54:11:496 -> 2086.00
10:54:11:496 -> 1976.00
10:54:11:496 -> 2050.00
10:54:11:498 -> 2011.00
10:54:11:509 -> 2060.00
10:54:11:520 -> 2024.00
10:54:11:529 -> 2033.00
10:54:11:540 -> 2041.00
10:54:11:550 -> 2027.00
10:54:11:560 -> 2051.00
10:54:11:570 -> 1971.00
10:54:11:581 -> 2072.00
10:54:11:591 -> 1997.00
10:54:11:601 -> 2039.00
10:54:11:612 -> 1935.00
10:54:11:622 -> 2114.00
10:54:11:633 -> 1974.00
10:54:11:643 -> 2100.00
10:54:11:653 -> 1937.00
10:54:11:663 -> 2104.00
10:54:11:674 -> 1941.00
10:54:11:684 -> 2127.00
10:54:11:695 -> 1927.00
10:54:11:705 -> 2091.00
10:54:11:716 -> 1985.00
10:54:11:726 -> 2086.00
10:54:11:736 -> 1828.00
10:54:11:746 -> 2070.00
10:54:11:757 -> 1945.00
10:54:11:767 -> 2084.00
10:54:11:778 -> 1987.00
10:54:11:788 -> 2031.00
10:54:11:798 -> 2008.00
10:54:11:809 -> 2072.00
10:54:11:819 -> 2095.00
10:54:11:830 -> 2044.00
10:54:11:840 -> 2124.00
10:54:11:850 -> 2146.00
10:54:11:861 -> 2097.00
10:54:11:871 -> 2009.00
10:54:11:881 -> 2050.00
10:54:11:892 -> 1872.00
10:54:11:902 -> 2008.00
10:54:11:912 -> 1915.00
10:54:11:923 -> 2009.00
10:54:11:933 -> 1897.00
10:54:11:943 -> 2137.00
10:54:11:954 -> 1890.00
10:54:11:964 -> 2137.00
10:54:11:974 -> 1763.00
10:54:11:985 -> 2222.00
10:54:12:010 -> 1918.00
10:54:12:011 -> 2101.00
10:54:12:016 -> 1949.00
10:54:12:026 -> 2004.00
10:54:12:036 -> 1887.00
10:54:12:047 -> 2084.00
10:54:12:057 -> 1928.00
10:54:12:067 -> 2042.00
10:54:12:077 -> 1944.00
10:54:12:088 -> 2069.00
10:54:12:098 -> 1951.00
10:54:12:108 -> 2029.00
10:54:12:119 -> 2043.00
10:54:12:129 -> 2034.00
10:54:12:140 -> 2123.00
10:54:12:150 -> 1827.00
10:54:12:160 -> 2118.00
10:54:12:171 -> 1960.00
10:54:12:181 -> 2077.00
10:54:12:191 -> 2028.00
10:54:12:202 -> 2130.00
10:54:12:212 -> 1844.00
10:54:12:227 -> 2090.00
10:54:12:232 -> 1943.00
10:54:12:243 -> 2029.00
10:54:12:253 -> 1960.00
10:54:12:263 -> 2136.00
10:54:12:274 -> 1933.00
10:54:12:284 -> 2140.00
10:54:12:294 -> 1876.00
10:54:12:305 -> 2023.00
10:54:12:315 -> 1992.00
10:54:12:325 -> 2033.00
10:54:12:336 -> 1944.00
10:54:12:346 -> 2139.00
10:54:12:356 -> 1892.00
10:54:12:366 -> 2110.00
10:54:12:377 -> 2036.00
10:54:12:387 -> 2062.00
10:54:12:397 -> 2008.00
10:54:12:408 -> 2076.00
10:54:12:418 -> 2020.00
10:54:12:429 -> 2023.00
10:54:12:465 -> 2016.00
10:54:12:466 -> 2008.00
10:54:12:466 -> 1980.00
10:54:12:469 -> 1987.00
10:54:12:481 -> 2063.00
10:54:12:490 -> 2020.00
10:54:12:500 -> 2080.00
10:54:12:526 -> 1985.00
10:54:12:527 -> 2061.00
10:54:12:531 -> 1968.00
10:54:12:542 -> 2060.00
10:54:12:552 -> 1924.00
10:54:12:563 -> 2086.00
10:54:12:573 -> 1950.00
10:54:12:583 -> 2126.00
10:54:12:593 -> 1947.00
10:54:12:604 -> 2138.00
10:54:12:614 -> 1916.00
10:54:12:624 -> 2088.00
10:54:12:635 -> 1898.00
10:54:12:645 -> 2123.00
10:54:12:655 -> 2016.00
10:54:12:666 -> 2037.00
10:54:12:676 -> 1869.00
10:54:12:686 -> 2085.00
10:54:12:697 -> 1933.00
10:54:12:707 -> 2101.00
10:54:12:717 -> 1964.00
10:54:12:727 -> 2088.00
10:54:12:738 -> 1991.00
10:54:12:748 -> 2037.00
10:54:12:759 -> 2013.00
10:54:12:769 -> 2015.00
10:54:12:779 -> 2085.00
10:54:12:789 -> 2001.00
10:54:12:799 -> 2051.00
10:54:12:810 -> 1996.00
10:54:12:820 -> 2093.00
10:54:12:830 -> 1971.00
10:54:12:841 -> 2068.00
10:54:12:851 -> 1982.00
10:54:12:861 -> 2102.00
10:54:12:872 -> 1934.00
10:54:12:882 -> 2107.00
10:54:12:892 -> 1947.00
10:54:12:904 -> 2110.00
10:54:12:913 -> 1925.00
10:54:12:923 -> 2129.00
10:54:12:934 -> 1966.00
10:54:12:944 -> 2126.00
10:54:12:954 -> 1909.00
10:54:12:965 -> 2119.00
10:54:12:975 -> 1997.00
10:54:12:985 -> 2118.00
10:54:12:996 -> 1857.00
10:54:13:006 -> 2082.00
10:54:13:016 -> 1907.00
10:54:13:042 -> 2045.00
10:54:13:043 -> 1986.00
10:54:13:047 -> 2041.00
10:54:13:058 -> 1974.00
10:54:13:068 -> 2032.00
10:54:13:078 -> 2042.00
10:54:13:089 -> 2005.00
10:54:13:099 -> 1962.00
10:54:13:109 -> 1992.00
10:54:13:120 -> 2090.00
10:54:13:130 -> 1986.00
10:54:13:140 -> 2048.00
10:54:13:151 -> 1906.00
10:54:13:161 -> 2097.00
10:54:13:172 -> 1899.00
10:54:13:182 -> 2065.00
10:54:13:195 -> 1974.00
10:54:13:203 -> 2120.00
10:54:13:213 -> 1930.00
10:54:13:223 -> 2100.00
10:54:13:234 -> 1947.00
10:54:13:244 -> 2148.00
10:54:13:254 -> 1953.00
10:54:13:265 -> 2131.00
10:54:13:275 -> 2069.00
10:54:13:285 -> 2054.00
10:54:13:297 -> 1898.00
10:54:13:306 -> 2087.00
10:54:13:317 -> 1920.00
10:54:13:327 -> 2080.00
10:54:13:337 -> 1969.00
10:54:13:347 -> 2091.00
10:54:13:358 -> 2007.00
10:54:13:368 -> 2008.00
10:54:13:379 -> 2017.00
10:54:13:389 -> 2003.00
10:54:13:399 -> 2038.00
10:54:13:410 -> 1978.00
10:54:13:420 -> 2082.00
10:54:13:430 -> 2013.00
10:54:13:441 -> 2120.00
10:54:13:474 -> 1932.00
10:54:13:475 -> 2120.00
10:54:13:475 -> 1980.00
10:54:13:482 -> 2089.00
10:54:13:492 -> 1986.00
10:54:13:502 -> 2140.00
10:54:13:516 -> 1915.00
10:54:13:523 -> 2121.00
10:54:13:534 -> 1937.00
10:54:13:558 -> 2105.00
10:54:13:559 -> 1936.00
10:54:13:564 -> 2116.00
10:54:13:575 -> 1996.00
10:54:13:585 -> 2130.00
10:54:13:600 -> 1838.00
10:54:13:606 -> 2079.00
10:54:13:616 -> 1846.00
10:54:13:626 -> 2064.00
10:54:13:637 -> 1964.00
10:54:13:647 -> 2018.00
10:54:13:657 -> 1994.00
10:54:13:668 -> 2042.00
10:54:13:678 -> 1979.00
10:54:13:688 -> 2030.00
10:54:13:698 -> 2043.00
10:54:13:709 -> 1994.00
10:54:13:719 -> 2074.00
10:54:13:729 -> 1977.00
10:54:13:740 -> 2052.00
10:54:13:750 -> 1976.00
10:54:13:761 -> 2093.00
10:54:13:771 -> 1930.00
10:54:13:781 -> 2053.00
10:54:13:792 -> 1968.00
10:54:13:802 -> 2015.00
10:54:13:812 -> 1951.00
10:54:13:822 -> 2099.00
10:54:13:833 -> 1933.00
10:54:13:843 -> 2106.00
10:54:13:853 -> 1916.00
10:54:13:864 -> 2109.00
10:54:13:874 -> 1951.00
10:54:13:884 -> 2111.00
10:54:13:895 -> 1894.00
10:54:13:905 -> 2133.00
10:54:13:915 -> 1902.00
10:54:13:930 -> 2082.00
10:54:13:936 -> 1932.00
10:54:13:946 -> 2059.00
10:54:13:957 -> 1955.00
10:54:13:967 -> 2047.00
10:54:13:977 -> 1913.00
10:54:13:988 -> 2047.00
10:54:13:998 -> 2039.00
10:54:14:009 -> 2029.00
10:54:14:019 -> 2034.00
10:54:14:029 -> 2014.00
10:54:14:040 -> 2088.00
10:54:14:050 -> 1962.00
10:54:14:072 -> 2093.00
10:54:14:073 -> 1956.00
10:54:14:081 -> 2091.00
10:54:14:091 -> 1941.00
10:54:14:102 -> 2099.00
10:54:14:112 -> 1951.00
10:54:14:123 -> 2123.00
10:54:14:133 -> 1948.00
10:54:14:144 -> 2092.00
10:54:14:154 -> 1971.00
10:54:14:164 -> 2132.00
10:54:14:175 -> 1968.00
10:54:14:185 -> 2093.00
10:54:14:196 -> 1911.00
10:54:14:205 -> 2101.00
10:54:14:216 -> 1928.00
10:54:14:226 -> 2024.00
10:54:14:237 -> 1993.00
10:54:14:247 -> 2036.00
10:54:14:257 -> 2034.00
10:54:14:268 -> 2021.00
10:54:14:278 -> 2049.00
10:54:14:288 -> 2002.00
10:54:14:299 -> 2046.00
10:54:14:309 -> 1983.00
10:54:14:319 -> 2108.00
10:54:14:329 -> 1964.00
10:54:14:360 -> 2088.00
10:54:14:361 -> 2006.00
10:54:14:361 -> 2077.00
10:54:14:371 -> 1963.00
10:54:14:381 -> 2081.00
10:54:14:391 -> 1931.00
10:54:14:402 -> 2100.00
10:54:14:412 -> 1948.00
10:54:14:423 -> 2118.00
10:54:14:433 -> 1949.00
10:54:14:449 -> 2121.00
10:54:14:460 -> 2078.00
10:54:14:470 -> 1966.00
10:54:14:480 -> 2094.00
10:54:14:491 -> 1941.00
10:54:14:501 -> 2113.00
10:54:14:514 -> 1934.00
10:54:14:522 -> 2101.00
10:54:14:533 -> 1927.00
10:54:14:542 -> 2118.00
10:54:14:552 -> 1932.00
10:54:14:563 -> 2105.00
10:54:14:589 -> 1944.00
10:54:14:590 -> 2052.00
10:54:14:594 -> 1955.00
10:54:14:604 -> 2142.00
10:54:14:614 -> 1962.00
10:54:14:625 -> 2088.00
10:54:14:635 -> 1891.00
10:54:14:645 -> 2084.00
10:54:14:656 -> 1913.00
10:54:14:666 -> 2097.00
10:54:14:676 -> 1984.00
10:54:14:686 -> 2036.00
10:54:14:697 -> 1999.00
10:54:14:711 -> 2015.00
10:54:14:717 -> 2016.00
10:54:14:728 -> 2019.00
10:54:14:738 -> 2037.00
10:54:14:748 -> 1986.00
10:54:14:759 -> 2073.00
10:54:14:769 -> 1979.00
10:54:14:779 -> 2053.00
10:54:14:790 -> 1973.00
10:54:14:800 -> 2082.00
10:54:14:810 -> 1937.00
10:54:14:821 -> 2106.00
10:54:14:831 -> 1965.00
10:54:14:841 -> 2082.00
10:54:14:851 -> 1981.00
10:54:14:865 -> 2127.00
10:54:14:872 -> 1939.00
10:54:14:882 -> 2118.00
10:54:14:893 -> 1931.00
10:54:14:903 -> 2105.00
10:54:14:913 -> 1949.00
10:54:14:924 -> 2100.00
10:54:14:934 -> 1907.00
10:54:14:944 -> 2090.00
10:54:14:955 -> 2061.00
10:54:14:965 -> 2055.00
10:54:14:975 -> 1892.00
10:54:14:985 -> 2062.00
10:54:14:996 -> 1958.00
10:54:15:006 -> 2035.00
10:54:15:016 -> 1986.00
10:54:15:027 -> 2059.00
10:54:15:037 -> 2011.00
10:54:15:047 -> 2006.00
10:54:15:058 -> 2021.00
10:54:15:068 -> 2024.00
10:54:15:078 -> 2065.00
10:54:15:104 -> 1995.00
10:54:15:104 -> 2055.00
10:54:15:109 -> 2008.00
10:54:15:119 -> 2072.00
10:54:15:130 -> 1981.00
10:54:15:140 -> 2085.00
10:54:15:150 -> 1888.00
10:54:15:161 -> 2090.00
10:54:15:171 -> 1963.00
10:54:15:182 -> 2067.00
10:54:15:192 -> 1965.00
10:54:15:202 -> 2124.00
10:54:15:212 -> 1927.00
10:54:15:222 -> 2094.00
10:54:15:233 -> 1934.00
10:54:15:243 -> 2107.00
10:54:15:253 -> 1907.00
10:54:15:264 -> 2117.00
10:54:15:274 -> 2051.00
10:54:15:285 -> 2090.00
10:54:15:295 -> 1848.00
10:54:15:306 -> 2085.00
10:54:15:316 -> 1969.00
10:54:15:326 -> 2052.00
10:54:15:336 -> 1997.00
10:54:15:347 -> 2058.00
10:54:15:357 -> 1980.00
10:54:15:368 -> 2012.00
10:54:15:380 -> 2054.00
10:54:15:388 -> 1976.00
10:54:15:399 -> 2067.00
10:54:15:409 -> 1976.00
10:54:15:419 -> 2057.00
10:54:15:430 -> 2006.00
10:54:15:440 -> 2079.00
10:54:15:451 -> 1964.00
10:54:15:479 -> 2103.00
10:54:15:479 -> 1905.00
10:54:15:487 -> 2027.00
10:54:15:502 -> 2007.00
10:54:15:507 -> 2014.00
10:54:15:518 -> 2053.00
10:54:15:528 -> 2002.00
10:54:15:538 -> 2078.00
10:54:15:548 -> 1993.00
10:54:15:559 -> 2038.00
10:54:15:569 -> 1981.00
10:54:15:579 -> 2089.00
10:54:15:590 -> 1954.00
10:54:15:601 -> 2064.00
10:54:15:626 -> 1951.00
10:54:15:628 -> 2090.00
10:54:15:631 -> 1984.00
10:54:15:641 -> 2078.00
10:54:15:652 -> 1957.00
10:54:15:662 -> 2127.00
10:54:15:672 -> 1926.00
10:54:15:683 -> 2114.00
10:54:15:693 -> 1917.00
10:54:15:704 -> 2116.00
10:54:15:714 -> 1950.00
10:54:15:724 -> 2082.00
10:54:15:735 -> 1910.00
10:54:15:745 -> 2103.00
10:54:15:755 -> 1945.00
10:54:15:765 -> 2086.00
10:54:15:776 -> 1973.00
10:54:15:786 -> 2047.00
10:54:15:797 -> 1985.00
10:54:15:807 -> 2046.00
10:54:15:817 -> 2003.00
10:54:15:827 -> 2044.00
10:54:15:838 -> 2046.00
10:54:15:852 -> 2024.00
10:54:15:858 -> 2038.00
10:54:15:869 -> 1978.00
10:54:15:879 -> 2054.00
10:54:15:889 -> 1971.00
10:54:15:899 -> 2113.00
10:54:15:910 -> 1907.00
10:54:15:920 -> 2113.00
10:54:15:931 -> 1936.00
10:54:15:942 -> 2071.00
10:54:15:951 -> 1890.00
10:54:15:961 -> 2118.00
10:54:15:972 -> 1938.00
10:54:15:982 -> 2140.00
10:54:15:992 -> 1897.00
10:54:16:003 -> 2099.00
10:54:16:013 -> 2013.00
10:54:16:023 -> 2045.00
10:54:16:033 -> 1979.00
10:54:16:044 -> 1998.00
10:54:16:054 -> 1857.00
10:54:16:067 -> 2025.00
10:54:16:075 -> 1774.00
10:54:16:085 -> 2081.00
10:54:16:095 -> 1852.00
10:54:16:106 -> 2137.00
10:54:16:116 -> 1955.00
10:54:16:142 -> 2070.00
10:54:16:143 -> 2088.00
10:54:16:147 -> 1945.00
10:54:16:157 -> 2119.00
10:54:16:168 -> 2030.00
10:54:16:178 -> 2148.00
10:54:16:189 -> 1947.00
10:54:16:199 -> 2155.00
10:54:16:209 -> 2062.00
10:54:16:219 -> 2056.00
10:54:16:230 -> 2013.00
10:54:16:241 -> 2037.00
10:54:16:250 -> 2022.00
10:54:16:260 -> 2054.00
10:54:16:271 -> 1969.00
10:54:16:281 -> 2180.00
10:54:16:291 -> 1880.00
10:54:16:302 -> 2130.00
10:54:16:312 -> 2012.00
10:54:16:323 -> 2115.00
10:54:16:333 -> 1802.00
10:54:16:344 -> 2195.00
10:54:16:354 -> 1935.00
10:54:16:364 -> 2102.00
10:54:16:378 -> 1937.00
10:54:16:385 -> 2073.00
10:54:16:395 -> 1881.00
10:54:16:406 -> 2041.00
10:54:16:416 -> 1982.00
10:54:16:426 -> 2096.00
10:54:16:437 -> 1916.00
10:54:16:447 -> 2057.00
10:54:16:457 -> 2099.00
10:54:16:468 -> 2097.00
10:54:16:489 -> 2021.00
10:54:16:505 -> 2029.00
10:54:16:505 -> 2098.00
10:54:16:509 -> 1873.00
10:54:16:519 -> 2009.00
10:54:16:529 -> 1867.00
10:54:16:540 -> 2088.00
10:54:16:550 -> 1932.00
10:54:16:560 -> 2119.00
10:54:16:571 -> 2016.00
10:54:16:581 -> 2119.00
10:54:16:591 -> 1965.00
10:54:16:601 -> 2147.00
10:54:16:613 -> 1944.00
10:54:16:622 -> 2112.00
10:54:16:633 -> 1941.00
10:54:16:659 -> 2093.00
10:54:16:660 -> 1833.00
10:54:16:663 -> 2068.00
10:54:16:674 -> 1938.00
10:54:16:684 -> 2131.00
10:54:16:695 -> 1908.00
10:54:16:705 -> 2100.00
10:54:16:715 -> 1968.00
10:54:16:726 -> 2038.00
10:54:16:737 -> 2000.00
10:54:16:747 -> 2063.00
10:54:16:757 -> 1995.00
10:54:16:767 -> 2032.00
10:54:16:778 -> 2072.00
10:54:16:788 -> 2003.00
10:54:16:799 -> 2047.00
10:54:16:809 -> 2000.00
10:54:16:819 -> 2095.00
10:54:16:829 -> 1954.00
10:54:16:839 -> 2055.00
10:54:16:850 -> 1945.00
10:54:16:860 -> 2048.00
10:54:16:870 -> 1903.00
10:54:16:882 -> 2077.00
10:54:16:891 -> 1955.00
10:54:16:902 -> 2117.00
10:54:16:912 -> 1924.00
10:54:16:922 -> 2130.00
10:54:16:932 -> 1917.00
10:54:16:943 -> 2111.00
10:54:16:954 -> 1901.00
10:54:16:964 -> 2102.00
10:54:16:979 -> 1931.00
10:54:16:985 -> 2109.00
10:54:16:995 -> 1869.00
10:54:17:005 -> 2047.00
10:54:17:015 -> 1943.00
10:54:17:025 -> 2070.00
10:54:17:036 -> 1953.00
10:54:17:046 -> 2082.00
10:54:17:056 -> 2001.00
10:54:17:067 -> 2009.00
10:54:17:077 -> 2042.00
10:54:17:087 -> 1994.00
10:54:17:105 -> 2047.00
10:54:17:108 -> 2016.00
10:54:17:118 -> 2084.00
10:54:17:129 -> 1970.00
10:54:17:139 -> 2058.00
10:54:17:150 -> 1968.00
10:54:17:175 -> 2115.00
10:54:17:176 -> 1965.00
10:54:17:180 -> 2077.00
10:54:17:191 -> 1939.00
10:54:17:201 -> 2139.00
10:54:17:212 -> 1931.00
10:54:17:222 -> 2112.00
10:54:17:232 -> 1940.00
10:54:17:242 -> 2124.00
10:54:17:253 -> 1893.00
10:54:17:263 -> 2112.00
10:54:17:273 -> 1943.00
10:54:17:284 -> 2085.00
10:54:17:294 -> 1928.00
10:54:17:304 -> 2054.00
10:54:17:315 -> 1949.00
10:54:17:325 -> 2100.00
10:54:17:367 -> 1960.00
10:54:17:368 -> 2063.00
10:54:17:368 -> 2003.00
10:54:17:368 -> 2037.00
10:54:17:377 -> 2025.00
10:54:17:387 -> 2023.00
10:54:17:397 -> 2036.00
10:54:17:407 -> 1984.00
10:54:17:418 -> 2070.00
10:54:17:428 -> 2008.00
10:54:17:439 -> 2106.00
10:54:17:449 -> 1928.00
10:54:17:459 -> 2100.00
10:54:17:469 -> 1968.00
10:54:17:479 -> 2096.00
10:54:17:490 -> 1954.00
10:54:17:500 -> 2103.00
10:54:17:511 -> 1907.00
10:54:17:521 -> 2121.00
10:54:17:531 -> 1924.00
10:54:17:542 -> 2082.00
10:54:17:552 -> 1968.00
10:54:17:562 -> 2103.00
10:54:17:573 -> 1945.00
10:54:17:583 -> 2132.00
10:54:17:593 -> 1934.00
10:54:17:604 -> 2057.00
10:54:17:614 -> 1877.00
10:54:17:625 -> 2088.00
10:54:17:635 -> 1949.00
10:54:17:645 -> 2020.00
10:54:17:655 -> 1956.00
10:54:17:665 -> 2034.00
10:54:17:691 -> 1996.00
10:54:17:691 -> 2034.00
10:54:17:696 -> 2002.00
10:54:17:707 -> 1993.00
10:54:17:717 -> 2017.00
10:54:17:727 -> 2015.00
10:54:17:738 -> 2053.00
10:54:17:748 -> 1986.00
10:54:17:759 -> 2105.00
10:54:17:769 -> 1978.00
10:54:17:779 -> 2075.00
10:54:17:789 -> 1930.00
10:54:17:800 -> 2124.00
10:54:17:810 -> 1924.00
10:54:17:820 -> 2114.00
10:54:17:831 -> 1951.00
10:54:17:841 -> 2097.00
10:54:17:851 -> 1976.00
10:54:17:862 -> 2123.00
10:54:17:872 -> 1936.00
10:54:17:882 -> 2123.00
10:54:17:894 -> 1959.00
10:54:17:903 -> 2108.00
10:54:17:913 -> 2024.00
10:54:17:924 -> 2063.00
10:54:17:934 -> 1894.00
10:54:17:945 -> 2048.00
10:54:17:955 -> 1950.00
10:54:17:965 -> 2068.00
10:54:17:976 -> 2013.00
10:54:17:986 -> 2031.00
10:54:17:996 -> 2034.00
10:54:18:006 -> 2034.00
10:54:18:017 -> 1997.00
10:54:18:027 -> 1985.00
10:54:18:037 -> 2055.00
10:54:18:048 -> 1998.00
10:54:18:058 -> 2086.00
10:54:18:068 -> 1958.00
10:54:18:079 -> 2092.00
10:54:18:089 -> 1960.00
10:54:18:099 -> 2042.00
10:54:18:110 -> 1983.00
10:54:18:120 -> 2112.00
10:54:18:130 -> 1956.00
10:54:18:141 -> 2110.00
10:54:18:152 -> 1973.00
10:54:18:161 -> 2134.00
10:54:18:172 -> 1934.00
10:54:18:182 -> 2117.00
10:54:18:207 -> 1966.00
10:54:18:208 -> 2124.00
10:54:18:217 -> 1973.00
10:54:18:223 -> 2120.00
10:54:18:233 -> 2018.00
10:54:18:244 -> 2083.00
10:54:18:254 -> 1932.00
10:54:18:265 -> 2056.00
10:54:18:275 -> 1995.00
10:54:18:285 -> 2038.00
10:54:18:295 -> 2000.00
10:54:18:306 -> 1990.00
10:54:18:316 -> 2018.00
10:54:18:326 -> 2019.00
10:54:18:362 -> 2041.00
10:54:18:363 -> 1965.00
10:54:18:363 -> 2064.00
10:54:18:367 -> 1988.00
10:54:18:378 -> 2067.00
10:54:18:388 -> 2018.00
10:54:18:399 -> 2030.00
10:54:18:409 -> 1972.00
10:54:18:419 -> 2124.00
10:54:18:429 -> 1950.00
10:54:18:440 -> 2109.00
10:54:18:450 -> 1939.00
10:54:18:460 -> 2087.00
10:54:18:471 -> 1932.00
10:54:18:481 -> 2134.00
10:54:18:495 -> 1898.00
10:54:18:502 -> 2130.00
10:54:18:512 -> 1945.00
10:54:18:523 -> 2131.00
10:54:18:533 -> 1949.00
10:54:18:543 -> 2092.00
10:54:18:554 -> 1859.00
10:54:18:564 -> 2101.00
10:54:18:574 -> 1896.00
10:54:18:585 -> 2035.00
10:54:18:595 -> 1928.00
10:54:18:605 -> 2075.00
10:54:18:616 -> 2024.00
10:54:18:627 -> 2018.00
10:54:18:636 -> 2016.00
10:54:18:647 -> 2019.00
10:54:18:657 -> 2036.00
10:54:18:668 -> 1984.00
10:54:18:678 -> 2070.00
10:54:18:688 -> 1939.00
10:54:18:699 -> 2090.00
10:54:18:727 -> 1945.00
10:54:18:728 -> 2073.00
10:54:18:729 -> 1939.00
10:54:18:740 -> 2095.00
10:54:18:750 -> 1955.00
10:54:18:761 -> 2072.00
10:54:18:771 -> 1928.00
10:54:18:781 -> 2134.00
10:54:18:791 -> 1954.00
10:54:18:802 -> 2153.00
10:54:18:812 -> 1925.00
10:54:18:823 -> 2114.00
10:54:18:833 -> 1916.00
10:54:18:843 -> 2085.00
10:54:18:853 -> 1861.00
10:54:18:864 -> 2101.00
10:54:18:874 -> 1928.00
10:54:18:884 -> 2091.00
10:54:18:895 -> 1967.00
10:54:18:905 -> 2070.00
10:54:18:915 -> 2010.00
10:54:18:926 -> 2053.00
10:54:18:936 -> 1964.00
10:54:18:946 -> 2002.00
10:54:18:957 -> 2039.00
10:54:18:967 -> 1983.00
10:54:18:977 -> 2052.00
10:54:18:988 -> 1977.00
10:54:18:999 -> 2062.00
10:54:19:009 -> 1947.00
10:54:19:019 -> 2167.00
10:54:19:030 -> 1962.00
10:54:19:040 -> 2117.00
10:54:19:051 -> 1915.00
10:54:19:061 -> 2181.00
10:54:19:072 -> 1992.00
10:54:19:082 -> 2119.00
10:54:19:092 -> 1947.00
10:54:19:102 -> 2140.00
10:54:19:113 -> 1915.00
10:54:19:123 -> 2105.00
10:54:19:134 -> 1841.00
10:54:19:144 -> 2094.00
10:54:19:154 -> 1966.00
10:54:19:165 -> 2207.00
10:54:19:179 -> 1944.00
10:54:19:185 -> 2060.00
10:54:19:196 -> 2151.00
10:54:19:206 -> 2070.00
10:54:19:216 -> 2200.00
10:54:19:226 -> 1926.00
10:54:19:244 -> 2190.00
10:54:19:247 -> 2064.00
10:54:19:258 -> 2064.00
10:54:19:288 -> 1970.00
10:54:19:288 -> 2128.00
10:54:19:288 -> 1898.00
10:54:19:299 -> 2105.00
10:54:19:309 -> 1890.00
10:54:19:320 -> 2155.00
10:54:19:330 -> 1928.00
10:54:19:341 -> 2133.00
10:54:19:351 -> 1986.00
10:54:19:361 -> 2091.00
10:54:19:371 -> 2034.00
10:54:19:382 -> 2126.00
10:54:19:392 -> 1819.00
10:54:19:402 -> 2134.00
10:54:19:413 -> 1932.00
10:54:19:423 -> 2072.00
10:54:19:433 -> 1902.00
10:54:19:444 -> 2044.00
10:54:19:454 -> 1926.00
10:54:19:465 -> 2076.00
10:54:19:479 -> 1985.00
10:54:19:485 -> 2109.00
10:54:19:496 -> 2009.00
10:54:19:506 -> 2062.00
10:54:19:516 -> 2034.00
10:54:19:527 -> 2055.00
10:54:19:537 -> 1981.00
10:54:19:548 -> 2032.00
10:54:19:558 -> 2044.00
10:54:19:568 -> 1935.00
10:54:19:579 -> 2089.00
10:54:19:589 -> 1974.00
10:54:19:599 -> 2123.00
10:54:19:610 -> 1957.00
10:54:19:620 -> 2004.00
10:54:19:631 -> 1847.00
10:54:19:641 -> 2144.00
10:54:19:651 -> 1953.00
10:54:19:661 -> 2164.00
10:54:19:672 -> 1837.00
10:54:19:682 -> 2206.00
10:54:19:692 -> 2003.00
10:54:19:703 -> 2166.00
10:54:19:716 -> 1903.00
10:54:19:723 -> 2112.00
10:54:19:734 -> 1981.00
10:54:19:760 -> 2116.00
10:54:19:761 -> 1978.00
10:54:19:765 -> 2108.00
10:54:19:775 -> 1907.00
10:54:19:785 -> 1979.00
10:54:19:795 -> 1990.00
10:54:19:806 -> 2076.00
10:54:19:816 -> 1871.00
10:54:19:827 -> 1974.00
10:54:19:837 -> 2042.00
10:54:19:847 -> 2000.00
10:54:19:858 -> 1956.00
10:54:19:868 -> 1905.00
10:54:19:878 -> 2133.00
10:54:19:889 -> 2003.00
10:54:19:903 -> 1998.00
10:54:19:909 -> 1960.00
10:54:19:919 -> 2138.00
10:54:19:930 -> 1976.00
10:54:19:940 -> 2130.00
10:54:19:950 -> 1875.00
10:54:19:961 -> 2141.00
10:54:19:971 -> 1977.00
10:54:19:981 -> 2183.00
10:54:19:992 -> 1963.00
10:54:20:002 -> 2148.00
10:54:20:012 -> 1966.00
10:54:20:023 -> 2103.00
10:54:20:035 -> 1878.00
10:54:20:043 -> 2102.00
10:54:20:053 -> 1873.00
10:54:20:064 -> 2093.00
10:54:20:102 -> 1980.00
10:54:20:106 -> 2096.00
10:54:20:106 -> 1996.00
10:54:20:106 -> 2054.00
10:54:20:115 -> 2014.00
10:54:20:125 -> 2014.00
10:54:20:136 -> 2044.00
10:54:20:146 -> 1998.00
10:54:20:156 -> 1996.00
10:54:20:167 -> 2025.00
10:54:20:181 -> 2113.00
10:54:20:188 -> 1976.00
10:54:20:198 -> 2097.00
10:54:20:208 -> 1947.00
10:54:20:218 -> 2102.00
10:54:20:229 -> 1964.00
10:54:20:239 -> 2105.00
10:54:20:249 -> 1953.00
10:54:20:274 -> 2096.00
10:54:20:277 -> 1947.00
10:54:20:280 -> 2128.00
10:54:20:291 -> 1945.00
10:54:20:301 -> 2134.00
10:54:20:311 -> 1958.00
10:54:20:322 -> 2158.00
10:54:20:332 -> 1919.00
10:54:20:344 -> 2076.00
10:54:20:353 -> 1863.00
10:54:20:363 -> 2081.00
10:54:20:373 -> 1867.00
10:54:20:383 -> 2039.00
10:54:20:394 -> 2010.00
10:54:20:404 -> 1979.00
10:54:20:414 -> 1995.00
10:54:20:425 -> 2045.00
10:54:20:435 -> 2012.00
10:54:20:445 -> 2070.00
10:54:20:456 -> 2032.00
10:54:20:466 -> 1985.00
10:54:20:476 -> 2044.00
10:54:20:487 -> 1949.00
10:54:20:498 -> 2085.00
10:54:20:507 -> 1981.00
10:54:20:518 -> 2076.00
10:54:20:528 -> 1986.00
10:54:20:538 -> 2063.00
10:54:20:549 -> 1964.00
10:54:20:559 -> 2062.00
10:54:20:569 -> 1937.00
10:54:20:579 -> 2098.00
10:54:20:590 -> 1936.00
10:54:20:600 -> 2127.00
10:54:20:611 -> 1902.00
10:54:20:620 -> 2103.00
10:54:20:631 -> 1912.00
10:54:20:641 -> 2081.00
10:54:20:652 -> 1895.00
10:54:20:662 -> 2111.00
10:54:20:672 -> 2048.00
10:54:20:682 -> 2082.00
10:54:20:694 -> 1909.00
10:54:20:703 -> 2099.00
10:54:20:714 -> 1927.00
10:54:20:724 -> 1990.00
10:54:20:734 -> 2005.00
10:54:20:744 -> 2051.00
10:54:20:755 -> 2012.00
10:54:20:765 -> 2050.00
10:54:20:791 -> 2036.00
10:54:20:791 -> 2007.00
10:54:20:796 -> 2054.00
10:54:20:806 -> 1953.00
10:54:20:816 -> 2111.00
10:54:20:827 -> 1967.00
10:54:20:837 -> 2065.00
10:54:20:847 -> 1972.00
10:54:20:858 -> 2096.00
10:54:20:868 -> 1932.00
10:54:20:878 -> 2056.00
10:54:20:889 -> 1951.00
10:54:20:899 -> 2057.00
10:54:20:929 -> 1927.00
10:54:20:929 -> 2123.00
10:54:20:930 -> 1935.00
10:54:20:940 -> 2146.00
10:54:20:950 -> 1933.00
10:54:20:960 -> 2123.00
10:54:20:971 -> 1973.00
10:54:20:981 -> 2082.00
10:54:20:991 -> 1984.00
10:54:21:002 -> 2090.00
10:54:21:012 -> 2078.00
10:54:21:022 -> 2098.00
10:54:21:033 -> 1892.00
10:54:21:044 -> 2099.00
10:54:21:053 -> 1943.00
10:54:21:064 -> 2063.00
10:54:21:074 -> 1983.00
10:54:21:084 -> 2056.00
10:54:21:095 -> 2025.00
10:54:21:105 -> 2036.00
10:54:21:116 -> 2047.00
10:54:21:126 -> 1969.00
10:54:21:137 -> 2108.00
10:54:21:147 -> 1976.00
10:54:21:157 -> 2083.00
10:54:21:167 -> 1981.00
10:54:21:178 -> 2095.00
10:54:21:188 -> 1938.00
10:54:21:199 -> 2110.00
10:54:21:209 -> 1959.00
10:54:21:219 -> 2069.00
10:54:21:230 -> 1923.00
10:54:21:240 -> 2158.00
10:54:21:250 -> 1935.00
10:54:21:261 -> 2142.00
10:54:21:271 -> 1915.00
10:54:21:281 -> 2116.00
10:54:21:315 -> 1961.00
10:54:21:316 -> 2061.00
10:54:21:316 -> 1879.00
10:54:21:325 -> 2076.00
10:54:21:333 -> 1933.00
10:54:21:343 -> 2071.00
10:54:21:354 -> 1925.00
10:54:21:364 -> 2054.00
10:54:21:374 -> 2023.00
10:54:21:385 -> 1987.00
10:54:21:395 -> 2049.00
10:54:21:405 -> 2005.00
10:54:21:416 -> 2053.00
10:54:21:426 -> 1957.00
10:54:21:438 -> 2066.00
10:54:21:447 -> 1994.00
10:54:21:457 -> 2075.00
10:54:21:467 -> 1935.00
10:54:21:478 -> 2095.00
10:54:21:488 -> 1948.00
10:54:21:498 -> 2131.00
10:54:21:509 -> 1970.00
10:54:21:519 -> 2084.00
10:54:21:530 -> 1945.00
10:54:21:540 -> 2114.00
10:54:21:550 -> 1911.00
10:54:21:561 -> 2125.00
10:54:21:571 -> 1931.00
10:54:21:581 -> 2128.00
10:54:21:591 -> 1964.00
10:54:21:602 -> 2078.00
10:54:21:612 -> 1964.00
10:54:21:622 -> 2053.00
10:54:21:633 -> 1916.00
10:54:21:643 -> 2058.00
10:54:21:653 -> 1968.00
10:54:21:664 -> 2010.00
10:54:21:674 -> 1991.00
10:54:21:685 -> 2032.00
10:54:21:697 -> 2017.00
10:54:21:705 -> 2030.00
10:54:21:716 -> 2049.00
10:54:21:726 -> 2007.00
10:54:21:736 -> 2041.00
10:54:21:747 -> 1994.00
10:54:21:757 -> 2105.00
10:54:21:789 -> 1934.00
10:54:21:789 -> 2062.00
10:54:21:789 -> 1977.00
10:54:21:798 -> 2102.00
10:54:21:809 -> 1955.00
10:54:21:836 -> 2121.00
10:54:21:837 -> 1964.00
10:54:21:839 -> 2116.00
10:54:21:850 -> 1925.00
10:54:21:860 -> 2132.00
10:54:21:870 -> 1960.00
10:54:21:881 -> 2116.00
10:54:21:891 -> 1941.00
10:54:21:901 -> 2042.00
10:54:21:911 -> 1963.00
10:54:21:922 -> 2112.00
10:54:21:932 -> 1930.00
10:54:21:942 -> 2065.00
10:54:21:952 -> 1937.00
10:54:21:963 -> 2091.00
10:54:21:973 -> 1979.00
10:54:21:984 -> 2027.00
10:54:21:994 -> 2016.00
10:54:22:004 -> 2041.00
10:54:22:015 -> 1994.00
10:54:22:025 -> 2019.00
10:54:22:035 -> 2054.00
10:54:22:046 -> 2026.00
10:54:22:060 -> 2083.00
10:54:22:067 -> 1971.00
10:54:22:077 -> 2071.00
10:54:22:087 -> 1934.00
10:54:22:098 -> 2059.00
10:54:22:108 -> 1903.00
10:54:22:119 -> 2143.00
10:54:22:129 -> 1940.00
10:54:22:139 -> 2113.00
10:54:22:150 -> 1946.00
10:54:22:160 -> 2114.00
10:54:22:170 -> 1913.00
10:54:22:180 -> 2135.00
10:54:22:191 -> 1944.00
10:54:22:201 -> 2110.00
10:54:22:211 -> 1964.00
10:54:22:222 -> 2089.00
10:54:22:232 -> 1890.00
10:54:22:242 -> 2072.00
10:54:22:253 -> 1937.00
10:54:22:263 -> 2045.00
10:54:22:273 -> 1978.00
10:54:22:284 -> 2041.00
10:54:22:294 -> 2004.00
10:54:22:305 -> 2048.00
10:54:22:315 -> 2092.00
10:54:22:325 -> 2014.00
10:54:22:350 -> 2052.00
10:54:22:351 -> 1989.00
10:54:22:356 -> 2062.00
10:54:22:366 -> 1991.00
10:54:22:377 -> 2054.00
10:54:22:387 -> 1963.00
10:54:22:397 -> 2077.00
10:54:22:408 -> 1946.00
10:54:22:418 -> 2094.00
10:54:22:428 -> 1935.00
10:54:22:439 -> 1993.00
10:54:22:449 -> 1868.00
10:54:22:459 -> 2173.00
10:54:22:470 -> 1931.00
10:54:22:480 -> 2091.00
10:54:22:490 -> 2069.00
10:54:22:501 -> 2008.00
10:54:22:511 -> 2007.00
10:54:22:521 -> 2074.00
10:54:22:531 -> 2119.00
10:54:22:542 -> 2104.00
10:54:22:555 -> 1840.00
10:54:22:562 -> 2108.00
10:54:22:573 -> 1784.00
10:54:22:583 -> 2056.00
10:54:22:593 -> 2028.00
10:54:22:603 -> 2003.00
10:54:22:644 -> 2012.00
10:54:22:645 -> 2044.00
10:54:22:645 -> 2035.00
10:54:22:645 -> 2004.00
10:54:22:655 -> 2011.00
10:54:22:665 -> 1946.00
10:54:22:676 -> 2040.00
10:54:22:686 -> 2022.00
10:54:22:696 -> 1996.00
10:54:22:707 -> 2006.00
10:54:22:717 -> 2179.00
10:54:22:728 -> 1881.00
10:54:22:738 -> 2099.00
10:54:22:748 -> 1962.00
10:54:22:758 -> 2117.00
10:54:22:769 -> 1918.00
10:54:22:779 -> 2084.00
10:54:22:789 -> 2069.00
10:54:22:800 -> 2137.00
10:54:22:810 -> 1974.00
10:54:22:820 -> 2063.00
10:54:22:830 -> 1948.00
10:54:22:841 -> 2115.00
10:54:22:865 -> 2052.00
10:54:22:867 -> 2051.00
10:54:22:872 -> 1913.00
10:54:22:882 -> 2013.00
10:54:22:893 -> 1864.00
10:54:22:903 -> 2120.00
10:54:22:913 -> 1968.00
10:54:22:924 -> 1916.00
10:54:22:934 -> 1996.00
10:54:22:944 -> 1986.00
10:54:22:955 -> 2011.00
10:54:22:966 -> 1990.00
10:54:22:976 -> 2053.00
10:54:22:986 -> 1932.00
10:54:22:996 -> 2058.00
10:54:23:007 -> 1994.00
10:54:23:017 -> 2064.00
10:54:23:028 -> 1918.00
10:54:23:038 -> 2025.00
10:54:23:048 -> 1943.00
10:54:23:058 -> 2180.00
10:54:23:069 -> 1999.00
10:54:23:079 -> 2240.00
10:54:23:090 -> 1961.00
10:54:23:100 -> 2157.00
10:54:23:110 -> 1944.00
10:54:23:120 -> 2055.00
10:54:23:131 -> 1956.00
10:54:23:141 -> 2059.00
10:54:23:151 -> 1839.00
10:54:23:163 -> 2052.00
10:54:23:173 -> 1907.00
10:54:23:183 -> 2178.00
10:54:23:193 -> 1952.00
10:54:23:203 -> 1976.00
10:54:23:214 -> 1955.00
10:54:23:224 -> 2075.00
10:54:23:234 -> 2023.00
10:54:23:245 -> 2025.00
10:54:23:255 -> 2067.00
10:54:23:269 -> 1956.00
10:54:23:276 -> 2184.00
10:54:23:286 -> 2003.00
10:54:23:296 -> 2063.00
10:54:23:307 -> 1974.00
10:54:23:317 -> 2063.00
10:54:23:327 -> 1914.00
10:54:23:338 -> 2103.00
10:54:23:348 -> 1982.00
10:54:23:358 -> 2117.00
10:54:23:381 -> 1913.00
10:54:23:382 -> 2138.00
10:54:23:389 -> 1922.00
10:54:23:400 -> 2128.00
10:54:23:410 -> 1873.00
10:54:23:420 -> 2135.00
10:54:23:431 -> 1933.00
10:54:23:441 -> 2137.00
10:54:23:451 -> 1885.00
10:54:23:461 -> 2105.00
10:54:23:472 -> 1918.00
10:54:23:482 -> 2078.00
10:54:23:495 -> 1947.00
10:54:23:503 -> 2019.00
10:54:23:513 -> 2036.00
10:54:23:523 -> 2008.00
10:54:23:534 -> 2012.00
10:54:23:544 -> 2063.00
10:54:23:554 -> 1977.00
10:54:23:565 -> 2011.00
10:54:23:575 -> 2085.00
10:54:23:587 -> 2017.00
10:54:23:596 -> 2093.00
10:54:23:606 -> 1968.00
10:54:23:616 -> 2051.00
10:54:23:626 -> 1956.00
10:54:23:637 -> 2120.00
10:54:23:647 -> 1910.00
10:54:23:657 -> 2065.00
10:54:23:668 -> 1938.00
10:54:23:678 -> 2104.00
10:54:23:694 -> 1930.00
10:54:23:698 -> 2077.00
10:54:23:709 -> 1944.00
10:54:23:742 -> 2148.00
10:54:23:743 -> 1928.00
10:54:23:743 -> 2093.00
10:54:23:750 -> 1908.00
10:54:23:760 -> 2086.00
10:54:23:770 -> 1906.00
10:54:23:781 -> 2098.00
10:54:23:791 -> 1884.00
10:54:23:802 -> 2069.00
10:54:23:812 -> 1911.00
10:54:23:822 -> 2058.00
10:54:23:832 -> 1969.00
10:54:23:843 -> 1991.00
10:54:23:853 -> 2024.00
10:54:23:863 -> 2021.00
10:54:23:874 -> 2019.00
10:54:23:901 -> 2022.00
10:54:23:902 -> 1998.00
10:54:23:905 -> 2039.00
10:54:23:915 -> 2043.00
10:54:23:925 -> 1987.00
10:54:23:935 -> 2068.00
10:54:23:946 -> 2000.00
10:54:23:956 -> 2043.00
10:54:23:966 -> 1955.00
10:54:23:977 -> 2076.00
10:54:23:987 -> 1938.00
10:54:24:000 -> 2103.00
10:54:24:007 -> 1949.00
10:54:24:018 -> 2151.00
10:54:24:028 -> 1957.00
10:54:24:038 -> 2145.00
10:54:24:049 -> 1914.00
10:54:24:059 -> 2110.00
10:54:24:070 -> 1960.00
10:54:24:080 -> 2100.00
10:54:24:091 -> 1964.00
10:54:24:101 -> 2075.00
10:54:24:115 -> 1869.00
10:54:24:121 -> 2050.00
10:54:24:132 -> 1953.00
10:54:24:142 -> 2068.00
10:54:24:152 -> 1966.00
10:54:24:163 -> 2036.00
10:54:24:173 -> 2008.00
10:54:24:183 -> 2007.00
10:54:24:194 -> 2030.00
10:54:24:204 -> 1990.00
10:54:24:215 -> 2050.00
10:54:24:229 -> 1973.00
10:54:24:235 -> 2070.00
10:54:24:245 -> 1956.00
10:54:24:256 -> 2093.00
10:54:24:266 -> 1983.00
10:54:24:276 -> 2104.00
10:54:24:287 -> 1934.00
10:54:24:297 -> 2062.00
10:54:24:308 -> 1978.00
10:54:24:318 -> 2136.00
10:54:24:328 -> 1944.00
10:54:24:339 -> 2126.00
10:54:24:349 -> 1901.00
10:54:24:360 -> 2078.00
10:54:24:370 -> 1974.00
10:54:24:380 -> 2062.00
10:54:24:391 -> 1961.00
10:54:24:416 -> 2079.00
10:54:24:418 -> 1879.00
10:54:24:421 -> 2099.00
10:54:24:432 -> 1966.00
10:54:24:442 -> 2036.00
10:54:24:452 -> 1980.00
10:54:24:463 -> 2063.00
10:54:24:473 -> 2026.00
10:54:24:483 -> 2058.00
10:54:24:494 -> 2015.00
10:54:24:504 -> 1999.00
10:54:24:514 -> 2057.00
10:54:24:525 -> 1987.00
10:54:24:535 -> 2089.00
10:54:24:545 -> 1975.00
10:54:24:585 -> 2070.00
10:54:24:585 -> 1977.00
10:54:24:585 -> 2085.00
10:54:24:586 -> 1972.00
10:54:24:597 -> 2127.00
10:54:24:607 -> 1960.00
10:54:24:617 -> 2098.00
10:54:24:628 -> 1945.00
10:54:24:638 -> 2115.00
10:54:24:648 -> 1927.00
10:54:24:659 -> 2110.00
10:54:24:669 -> 1970.00
10:54:24:679 -> 2119.00
10:54:24:690 -> 1927.00
10:54:24:700 -> 2090.00
10:54:24:710 -> 2005.00
10:54:24:723 -> 2097.00
10:54:24:731 -> 1923.00
10:54:24:741 -> 2025.00
10:54:24:752 -> 1988.00
10:54:24:762 -> 2046.00
10:54:24:772 -> 1995.00
10:54:24:782 -> 2041.00
10:54:24:793 -> 2007.00
10:54:24:803 -> 2037.00
10:54:24:814 -> 2032.00
10:54:24:824 -> 1994.00
10:54:24:834 -> 2062.00
10:54:24:845 -> 2007.00
10:54:24:855 -> 2097.00
10:54:24:865 -> 1969.00
10:54:24:876 -> 2105.00
10:54:24:886 -> 1964.00
10:54:24:896 -> 2095.00
10:54:24:907 -> 1910.00
10:54:24:932 -> 2076.00
10:54:24:933 -> 1972.00
10:54:24:939 -> 2131.00
10:54:24:949 -> 1945.00
10:54:24:961 -> 2055.00
10:54:24:970 -> 1898.00
10:54:24:980 -> 2111.00
10:54:24:991 -> 1883.00
10:54:25:001 -> 2081.00
10:54:25:012 -> 1965.00
10:54:25:022 -> 2058.00
10:54:25:032 -> 1980.00
10:54:25:043 -> 2019.00
10:54:25:053 -> 2028.00
10:54:25:064 -> 2000.00
10:54:25:074 -> 2062.00
10:54:25:084 -> 1986.00
10:54:25:095 -> 2081.00
10:54:25:105 -> 1926.00
10:54:25:115 -> 2040.00
10:54:25:125 -> 1976.00
10:54:25:136 -> 2105.00
10:54:25:146 -> 1951.00
10:54:25:156 -> 2087.00
10:54:25:167 -> 1934.00
10:54:25:179 -> 2104.00
10:54:25:188 -> 1994.00
10:54:25:198 -> 2093.00
10:54:25:209 -> 1948.00
10:54:25:219 -> 2131.00
10:54:25:229 -> 1960.00
10:54:25:240 -> 2103.00
10:54:25:250 -> 2008.00
10:54:25:261 -> 2086.00
10:54:25:271 -> 1922.00
10:54:25:281 -> 2048.00
10:54:25:292 -> 2057.00
10:54:25:302 -> 2057.00
10:54:25:312 -> 2019.00
10:54:25:322 -> 2029.00
10:54:25:333 -> 2000.00
10:54:25:343 -> 2012.00
10:54:25:353 -> 2011.00
10:54:25:364 -> 1980.00
10:54:25:374 -> 2063.00
10:54:25:384 -> 2004.00
10:54:25:395 -> 2098.00
10:54:25:405 -> 1989.00
10:54:25:415 -> 2091.00
10:54:25:462 -> 1913.00
10:54:25:463 -> 2114.00
10:54:25:463 -> 1955.00
10:54:25:463 -> 2097.00
10:54:25:467 -> 1956.00
10:54:25:477 -> 2151.00
10:54:25:488 -> 1974.00
10:54:25:498 -> 2145.00
10:54:25:509 -> 1946.00
10:54:25:519 -> 2110.00
10:54:25:529 -> 1965.00
10:54:25:542 -> 2083.00
10:54:25:550 -> 1896.00
10:54:25:560 -> 2091.00
10:54:25:571 -> 1945.00
10:54:25:581 -> 2051.00
10:54:25:591 -> 1950.00
10:54:25:602 -> 2053.00
10:54:25:612 -> 2013.00
10:54:25:622 -> 1995.00
10:54:25:633 -> 2033.00
10:54:25:643 -> 2056.00
10:54:25:654 -> 2077.00
10:54:25:664 -> 1975.00
10:54:25:675 -> 2094.00
10:54:25:685 -> 1967.00
10:54:25:695 -> 2076.00
10:54:25:705 -> 2033.00
10:54:25:715 -> 2057.00
10:54:25:726 -> 1978.00
10:54:25:736 -> 2072.00
10:54:25:746 -> 1958.00
10:54:25:757 -> 2087.00
10:54:25:767 -> 1973.00
10:54:25:777 -> 2135.00
10:54:25:788 -> 1951.00
10:54:25:798 -> 2110.00
10:54:25:808 -> 1933.00
10:54:25:818 -> 2108.00
10:54:25:829 -> 1940.00
10:54:25:842 -> 2124.00
10:54:25:849 -> 1996.00
10:54:25:860 -> 2109.00
10:54:25:870 -> 1880.00
10:54:25:880 -> 2059.00
10:54:25:891 -> 1939.00
10:54:25:901 -> 2080.00
10:54:25:911 -> 1954.00
10:54:25:922 -> 2042.00
10:54:25:932 -> 2042.00
10:54:25:942 -> 2025.00
10:54:25:953 -> 2068.00
10:54:25:978 -> 1995.00
10:54:25:979 -> 2070.00
10:54:25:984 -> 1918.00
10:54:25:994 -> 2090.00
10:54:26:004 -> 2003.00
10:54:26:017 -> 2098.00
10:54:26:025 -> 1983.00
10:54:26:035 -> 2085.00
10:54:26:045 -> 1932.00
10:54:26:056 -> 2110.00
10:54:26:066 -> 1924.00
10:54:26:076 -> 2107.00
10:54:26:087 -> 1940.00
10:54:26:097 -> 2111.00
10:54:26:108 -> 1958.00
10:54:26:118 -> 2127.00
10:54:26:128 -> 1884.00
10:54:26:139 -> 2126.00
10:54:26:149 -> 1941.00
10:54:26:163 -> 2075.00
10:54:26:170 -> 1939.00
10:54:26:180 -> 2055.00
10:54:26:190 -> 1943.00
10:54:26:201 -> 2046.00
10:54:26:211 -> 1966.00
10:54:26:221 -> 2052.00
10:54:26:232 -> 2019.00
10:54:26:242 -> 2020.00
10:54:26:252 -> 2048.00
10:54:26:263 -> 2003.00
10:54:26:273 -> 2091.00
10:54:26:283 -> 1952.00
10:54:26:294 -> 2035.00
10:54:26:308 -> 1981.00
10:54:26:314 -> 2097.00
10:54:26:325 -> 1988.00
10:54:26:335 -> 2050.00
10:54:26:345 -> 1986.00
10:54:26:355 -> 2197.00
10:54:26:366 -> 2034.00
10:54:26:376 -> 2055.00
10:54:26:386 -> 1900.00
10:54:26:423 -> 2183.00
10:54:26:424 -> 2036.00
10:54:26:424 -> 2011.00
10:54:26:428 -> 1994.00
10:54:26:438 -> 2132.00
10:54:26:448 -> 1918.00
10:54:26:459 -> 2171.00
10:54:26:469 -> 1912.00
10:54:26:495 -> 1987.00
10:54:26:495 -> 1864.00
10:54:26:500 -> 2079.00
10:54:26:510 -> 1919.00
10:54:26:521 -> 2061.00
10:54:26:531 -> 1915.00
10:54:26:541 -> 2030.00
10:54:26:551 -> 2039.00
10:54:26:562 -> 2041.00
10:54:26:572 -> 2055.00
10:54:26:582 -> 2016.00
10:54:26:593 -> 2087.00
10:54:26:605 -> 1925.00
10:54:26:613 -> 2085.00
10:54:26:624 -> 1938.00
10:54:26:634 -> 2109.00
10:54:26:645 -> 1910.00
10:54:26:655 -> 2029.00
10:54:26:665 -> 2002.00
10:54:26:675 -> 2141.00
10:54:26:686 -> 1959.00
10:54:26:696 -> 2080.00
10:54:26:706 -> 1962.00
10:54:26:716 -> 2106.00
10:54:26:727 -> 1922.00
10:54:26:737 -> 2155.00
10:54:26:747 -> 1933.00
10:54:26:758 -> 2097.00
10:54:26:768 -> 1939.00
10:54:26:778 -> 2091.00
10:54:26:788 -> 1910.00
10:54:26:799 -> 2112.00
10:54:26:809 -> 1968.00
10:54:26:820 -> 2010.00
10:54:26:830 -> 1903.00
10:54:26:840 -> 2122.00
10:54:26:851 -> 1939.00
10:54:26:861 -> 2047.00
10:54:26:871 -> 1954.00
10:54:26:882 -> 1991.00
10:54:26:892 -> 1958.00
10:54:26:902 -> 2007.00
10:54:26:913 -> 2017.00
10:54:26:923 -> 1961.00
10:54:26:933 -> 2008.00
10:54:26:943 -> 2019.00
10:54:26:954 -> 2049.00
10:54:26:964 -> 1999.00
10:54:26:974 -> 2072.00
10:54:26:985 -> 1957.00
10:54:27:012 -> 2085.00
10:54:27:012 -> 1908.00
10:54:27:015 -> 2084.00
10:54:27:026 -> 2028.00
10:54:27:036 -> 2090.00
10:54:27:047 -> 1930.00
10:54:27:057 -> 2139.00
10:54:27:067 -> 1933.00
10:54:27:077 -> 2058.00
10:54:27:088 -> 1942.00
10:54:27:098 -> 2227.00
10:54:27:108 -> 2018.00
10:54:27:119 -> 2117.00
10:54:27:129 -> 1931.00
10:54:27:144 -> 2105.00
10:54:27:150 -> 1868.00
10:54:27:160 -> 1997.00
10:54:27:171 -> 1913.00
10:54:27:181 -> 2075.00
10:54:27:192 -> 1986.00
10:54:27:202 -> 1909.00
10:54:27:212 -> 2007.00
10:54:27:223 -> 2013.00
10:54:27:233 -> 1935.00
10:54:27:243 -> 2001.00
10:54:27:254 -> 2102.00
10:54:27:266 -> 1987.00
10:54:27:274 -> 2121.00
10:54:27:285 -> 1933.00
10:54:27:295 -> 2108.00
10:54:27:305 -> 1946.00
10:54:27:316 -> 2112.00
10:54:27:326 -> 1959.00
10:54:27:336 -> 2137.00
10:54:27:347 -> 1912.00
10:54:27:357 -> 2151.00
10:54:27:367 -> 1927.00
10:54:27:382 -> 2149.00
10:54:27:411 -> 1899.00
10:54:27:411 -> 2136.00
10:54:27:411 -> 1924.00
10:54:27:419 -> 2168.00
10:54:27:429 -> 1986.00
10:54:27:439 -> 2098.00
10:54:27:449 -> 1874.00
10:54:27:460 -> 2101.00
10:54:27:470 -> 1952.00
10:54:27:480 -> 2041.00
10:54:27:495 -> 1963.00
10:54:27:501 -> 2059.00
10:54:27:526 -> 1961.00
10:54:27:527 -> 2027.00
10:54:27:532 -> 2005.00
10:54:27:542 -> 2006.00
10:54:27:553 -> 2037.00
10:54:27:563 -> 1998.00
10:54:27:573 -> 2066.00
10:54:27:583 -> 1970.00
10:54:27:594 -> 2083.00
10:54:27:604 -> 1979.00
10:54:27:614 -> 2081.00
10:54:27:625 -> 1947.00
10:54:27:635 -> 2046.00
10:54:27:645 -> 1963.00
10:54:27:656 -> 2102.00
10:54:27:666 -> 1938.00
10:54:27:676 -> 2118.00
10:54:27:687 -> 1936.00
10:54:27:697 -> 2129.00
10:54:27:707 -> 1924.00
10:54:27:717 -> 2077.00
10:54:27:732 -> 1922.00
10:54:27:738 -> 2108.00
10:54:27:748 -> 1959.00
10:54:27:758 -> 2107.00
10:54:27:769 -> 1909.00
10:54:27:779 -> 2111.00
10:54:27:790 -> 1950.00
10:54:27:800 -> 2083.00
10:54:27:810 -> 1987.00
10:54:27:820 -> 2051.00
10:54:27:831 -> 1998.00
10:54:27:841 -> 2038.00
10:54:27:852 -> 2012.00
10:54:27:862 -> 1990.00
10:54:27:872 -> 2062.00
10:54:27:882 -> 2035.00
10:54:27:893 -> 2050.00
10:54:27:903 -> 1987.00
10:54:27:913 -> 2058.00
10:54:27:924 -> 1968.00
10:54:27:934 -> 2065.00
10:54:27:944 -> 2001.00
10:54:27:955 -> 2059.00
10:54:27:965 -> 2011.00
10:54:27:975 -> 2084.00
10:54:27:986 -> 1937.00
10:54:27:996 -> 2137.00
10:54:28:007 -> 1946.00
10:54:28:016 -> 2118.00
10:54:28:041 -> 1921.00
10:54:28:041 -> 2098.00
10:54:28:047 -> 1957.00
10:54:28:058 -> 2118.00
10:54:28:068 -> 1949.00
10:54:28:078 -> 2113.00
10:54:28:089 -> 1962.00
10:54:28:099 -> 2078.00
10:54:28:109 -> 1927.00
10:54:28:120 -> 2042.00
10:54:28:132 -> 1969.00
10:54:28:140 -> 2040.00
10:54:28:151 -> 1975.00
10:54:28:161 -> 2069.00
10:54:28:171 -> 2010.00
10:54:28:181 -> 2022.00
10:54:28:192 -> 2046.00
10:54:28:202 -> 2028.00
10:54:28:212 -> 2064.00
10:54:28:223 -> 2000.00
10:54:28:233 -> 2070.00
10:54:28:243 -> 1926.00
10:54:28:254 -> 2064.00
10:54:28:264 -> 1936.00
10:54:28:274 -> 2092.00
10:54:28:285 -> 1958.00
10:54:28:295 -> 2100.00
10:54:28:305 -> 1974.00
10:54:28:315 -> 2104.00
10:54:28:326 -> 1910.00
10:54:28:336 -> 2139.00
10:54:28:346 -> 1936.00
10:54:28:357 -> 2085.00
10:54:28:367 -> 1954.00
10:54:28:380 -> 2144.00
10:54:28:388 -> 1944.00
10:54:28:398 -> 2093.00
10:54:28:409 -> 1964.00
10:54:28:419 -> 2076.00
10:54:28:450 -> 1978.00
10:54:28:429 -> 1917.00
10:54:28:439 -> 2019.00
10:54:28:460 -> 2059.00
10:54:28:470 -> 2003.00
10:54:28:481 -> 2031.00
10:54:28:491 -> 1979.00
10:54:28:501 -> 2026.00
10:54:28:512 -> 2031.00
10:54:28:522 -> 2005.00
10:54:28:532 -> 2053.00
10:54:28:561 -> 1957.00
10:54:28:561 -> 2095.00
10:54:28:563 -> 1942.00
10:54:28:574 -> 2051.00
10:54:28:584 -> 2007.00
10:54:28:624 -> 2083.00
10:54:28:625 -> 1926.00
10:54:28:625 -> 2134.00
10:54:28:625 -> 1942.00
10:54:28:635 -> 2092.00
10:54:28:646 -> 1979.00
10:54:28:656 -> 2074.00
10:54:28:666 -> 1942.00
10:54:28:677 -> 2130.00
10:54:28:687 -> 1917.00
10:54:28:697 -> 2128.00
10:54:28:712 -> 1959.00
10:54:28:718 -> 2098.00
10:54:28:728 -> 1964.00
10:54:28:739 -> 2108.00
10:54:28:749 -> 1894.00
10:54:28:759 -> 2062.00
10:54:28:770 -> 1957.00
10:54:28:780 -> 2036.00
10:54:28:790 -> 2002.00
10:54:28:801 -> 2018.00
10:54:28:811 -> 2020.00
10:54:28:821 -> 2020.00
10:54:28:832 -> 2027.00
10:54:28:842 -> 2009.00
10:54:28:852 -> 2101.00
10:54:28:863 -> 1976.00
10:54:28:873 -> 2058.00
10:54:28:883 -> 1950.00
10:54:28:894 -> 2090.00
10:54:28:904 -> 1973.00
10:54:28:914 -> 2152.00
10:54:28:925 -> 1922.00
10:54:28:935 -> 2063.00
10:54:28:945 -> 1960.00
10:54:28:956 -> 2080.00
10:54:28:966 -> 1969.00
10:54:28:977 -> 2125.00
10:54:28:987 -> 1955.00
10:54:28:997 -> 2097.00
10:54:29:007 -> 1933.00
10:54:29:018 -> 2116.00
10:54:29:028 -> 1935.00
10:54:29:038 -> 2052.00
10:54:29:049 -> 1905.00
10:54:29:059 -> 2075.00
10:54:29:075 -> 1933.00
10:54:29:084 -> 2047.00
10:54:29:090 -> 1989.00
10:54:29:100 -> 2015.00
10:54:29:110 -> 2037.00
10:54:29:121 -> 2002.00
10:54:29:131 -> 2020.00
10:54:29:141 -> 2010.00
10:54:29:152 -> 2056.00
10:54:29:162 -> 1986.00
10:54:29:172 -> 2070.00
10:54:29:183 -> 1950.00
10:54:29:193 -> 2095.00
10:54:29:203 -> 1923.00
10:54:29:214 -> 2056.00
10:54:29:224 -> 2000.00
10:54:29:234 -> 2082.00
10:54:29:244 -> 1916.00
10:54:29:255 -> 2095.00
10:54:29:265 -> 1897.00
10:54:29:275 -> 2093.00
10:54:29:286 -> 1944.00
10:54:29:296 -> 2103.00
10:54:29:306 -> 1911.00
10:54:29:317 -> 2087.00
10:54:29:327 -> 1974.00
10:54:29:338 -> 2088.00
10:54:29:348 -> 1928.00
10:54:29:358 -> 2099.00
10:54:29:368 -> 1942.00
10:54:29:379 -> 2088.00
10:54:29:389 -> 1948.00
10:54:29:399 -> 2033.00
10:54:29:410 -> 2027.00
10:54:29:420 -> 2021.00
10:54:29:430 -> 2040.00
10:54:29:441 -> 2058.00
10:54:29:451 -> 2068.00
10:54:29:462 -> 2001.00
10:54:29:472 -> 2090.00
10:54:29:482 -> 1980.00
10:54:29:492 -> 2097.00
10:54:29:502 -> 1995.00
10:54:29:513 -> 2075.00
10:54:29:554 -> 1907.00
10:54:29:555 -> 2127.00
10:54:29:555 -> 1970.00
10:54:29:555 -> 2091.00
10:54:29:565 -> 1919.00
10:54:29:589 -> 2097.00
10:54:29:590 -> 1943.00
10:54:29:595 -> 2075.00
10:54:29:605 -> 1971.00
10:54:29:616 -> 2119.00
10:54:29:626 -> 1967.00
10:54:29:637 -> 2098.00
10:54:29:647 -> 1992.00
10:54:29:657 -> 2082.00
10:54:29:668 -> 1933.00
10:54:29:678 -> 2097.00
10:54:29:688 -> 1919.00
10:54:29:702 -> 2055.00
10:54:29:709 -> 1980.00
10:54:29:719 -> 2040.00
10:54:29:730 -> 1993.00
10:54:29:740 -> 1984.00
10:54:29:750 -> 2076.00
10:54:29:760 -> 2027.00
10:54:29:771 -> 2045.00
10:54:29:781 -> 1988.00
10:54:29:791 -> 2095.00
10:54:29:802 -> 1973.00
10:54:29:812 -> 2106.00
10:54:29:822 -> 2012.00
10:54:29:833 -> 2046.00
10:54:29:843 -> 1966.00
10:54:29:853 -> 2094.00
10:54:29:864 -> 1936.00
10:54:29:874 -> 2034.00
10:54:29:885 -> 1945.00
10:54:29:895 -> 2135.00
10:54:29:905 -> 1925.00
10:54:29:915 -> 2110.00
10:54:29:926 -> 1942.00
10:54:29:936 -> 2069.00
10:54:29:947 -> 1941.00
10:54:29:960 -> 2134.00
10:54:29:967 -> 1929.00
10:54:29:978 -> 2103.00
10:54:29:988 -> 1899.00
10:54:29:998 -> 2051.00
10:54:30:009 -> 1975.00
10:54:30:019 -> 2036.00
10:54:30:029 -> 2038.00
10:54:30:040 -> 2003.00
10:54:30:050 -> 2062.00
10:54:30:061 -> 2012.00
10:54:30:071 -> 2081.00
10:54:30:081 -> 1960.00
10:54:30:105 -> 2130.00
10:54:30:106 -> 1960.00
10:54:30:112 -> 2052.00
10:54:30:122 -> 1926.00
10:54:30:133 -> 2081.00
10:54:30:143 -> 1915.00
10:54:30:153 -> 2098.00
10:54:30:164 -> 1939.00
10:54:30:174 -> 2099.00
10:54:30:184 -> 1996.00
10:54:30:194 -> 2068.00
10:54:30:205 -> 1954.00
10:54:30:215 -> 2132.00
10:54:30:225 -> 1927.00
10:54:30:236 -> 2102.00
10:54:30:246 -> 1978.00
10:54:30:257 -> 2074.00
10:54:30:267 -> 1830.00
10:54:30:277 -> 2068.00
10:54:30:288 -> 1963.00
10:54:30:298 -> 2023.00
10:54:30:308 -> 2020.00
10:54:30:319 -> 2098.00
10:54:30:329 -> 2001.00
10:54:30:340 -> 1994.00
10:54:30:350 -> 1988.00
10:54:30:361 -> 2054.00
10:54:30:371 -> 2083.00
10:54:30:381 -> 2033.00
10:54:30:392 -> 2098.00
10:54:30:402 -> 1979.00
10:54:30:412 -> 2078.00
10:54:30:423 -> 2020.00
10:54:30:433 -> 2089.00
10:54:30:444 -> 1895.00
10:54:30:456 -> 2118.00
10:54:30:464 -> 1877.00
10:54:30:475 -> 2086.00
10:54:30:485 -> 1893.00
10:54:30:496 -> 2132.00
10:54:30:506 -> 1908.00
10:54:30:517 -> 2090.00
10:54:30:527 -> 1901.00
10:54:30:537 -> 2168.00
10:54:30:547 -> 1782.00
10:54:30:558 -> 2140.00
10:54:30:568 -> 2031.00
10:54:30:582 -> 2000.00
10:54:30:589 -> 1995.00
10:54:30:600 -> 2081.00
10:54:30:654 -> 2015.00
10:54:30:655 -> 2065.00
10:54:30:655 -> 2051.00
10:54:30:655 -> 1991.00
10:54:30:655 -> 1993.00
10:54:30:661 -> 1993.00
10:54:30:671 -> 2059.00
10:54:30:682 -> 1974.00
10:54:30:692 -> 2100.00
10:54:30:703 -> 1907.00
10:54:30:713 -> 2115.00
10:54:30:723 -> 1986.00
10:54:30:733 -> 2102.00
10:54:30:744 -> 1937.00
10:54:30:754 -> 2148.00
10:54:30:765 -> 1906.00
10:54:30:775 -> 2113.00
10:54:30:785 -> 1963.00
10:54:30:796 -> 2142.00
10:54:30:806 -> 1940.00
10:54:30:816 -> 2113.00
10:54:30:827 -> 1882.00
10:54:30:837 -> 2036.00
10:54:30:848 -> 1972.00
10:54:30:858 -> 2070.00
10:54:30:868 -> 1866.00
10:54:30:879 -> 2095.00
10:54:30:889 -> 2012.00
10:54:30:899 -> 2035.00
10:54:30:909 -> 2003.00
10:54:30:920 -> 2019.00
10:54:30:930 -> 2024.00
10:54:30:940 -> 1971.00
10:54:30:951 -> 2098.00
10:54:30:961 -> 1950.00
10:54:30:971 -> 2111.00
10:54:30:982 -> 1970.00
10:54:30:992 -> 2105.00
10:54:31:003 -> 1933.00
10:54:31:013 -> 2117.00
10:54:31:023 -> 1899.00
10:54:31:034 -> 2117.00
10:54:31:044 -> 1899.00
10:54:31:055 -> 2137.00
10:54:31:065 -> 1927.00
10:54:31:075 -> 2143.00
10:54:31:085 -> 1902.00
10:54:31:096 -> 2116.00
10:54:31:106 -> 2027.00
10:54:31:117 -> 2097.00
10:54:31:127 -> 1850.00
10:54:31:137 -> 2077.00
10:54:31:148 -> 1949.00
10:54:31:174 -> 2058.00
10:54:31:175 -> 1920.00
10:54:31:179 -> 2014.00
10:54:31:189 -> 2052.00
10:54:31:200 -> 2067.00
10:54:31:210 -> 2078.00
10:54:31:220 -> 2015.00
10:54:31:231 -> 1981.00
10:54:31:241 -> 2042.00
10:54:31:251 -> 2089.00
10:54:31:262 -> 1917.00
10:54:31:272 -> 2159.00
10:54:31:282 -> 1990.00
10:54:31:293 -> 2133.00
10:54:31:303 -> 1925.00
10:54:31:313 -> 2076.00
10:54:31:327 -> 1957.00
10:54:31:334 -> 2149.00
10:54:31:344 -> 1954.00
10:54:31:355 -> 2142.00
10:54:31:365 -> 1889.00
10:54:31:375 -> 2092.00
10:54:31:387 -> 1978.00
10:54:31:397 -> 2060.00
10:54:31:408 -> 1992.00
10:54:31:418 -> 2079.00
10:54:31:429 -> 1986.00
10:54:31:438 -> 2044.00
10:54:31:449 -> 2012.00
10:54:31:459 -> 2033.00
10:54:31:469 -> 2031.00
10:54:31:480 -> 1904.00
10:54:31:490 -> 2057.00
10:54:31:500 -> 2002.00
10:54:31:511 -> 2078.00
10:54:31:521 -> 1972.00
10:54:31:532 -> 2114.00
10:54:31:542 -> 1949.00
10:54:31:552 -> 2047.00
10:54:31:563 -> 1973.00
10:54:31:573 -> 2109.00
10:54:31:583 -> 1966.00
10:54:31:594 -> 2126.00
10:54:31:605 -> 1921.00
10:54:31:615 -> 2117.00
10:54:31:626 -> 1970.00
10:54:31:636 -> 2089.00
10:54:31:646 -> 1936.00
10:54:31:661 -> 2090.00
10:54:31:667 -> 1918.00
10:54:31:695 -> 2047.00
10:54:31:696 -> 1985.00
10:54:31:698 -> 2057.00
10:54:31:708 -> 2008.00
10:54:31:719 -> 2047.00
10:54:31:751 -> 2009.00
10:54:31:752 -> 2048.00
10:54:31:752 -> 2052.00
10:54:31:761 -> 1998.00
10:54:31:770 -> 2064.00
10:54:31:781 -> 1969.00
10:54:31:791 -> 2096.00
10:54:31:801 -> 1975.00
10:54:31:811 -> 2106.00
10:54:31:822 -> 1927.00
10:54:31:832 -> 2071.00
10:54:31:843 -> 1907.00
10:54:31:853 -> 2073.00
10:54:31:863 -> 1928.00
10:54:31:874 -> 2129.00
10:54:31:884 -> 1968.00
10:54:31:894 -> 2112.00
10:54:31:905 -> 1956.00
10:54:31:915 -> 2111.00
10:54:31:925 -> 1977.00
10:54:31:936 -> 2040.00
10:54:31:946 -> 1963.00
10:54:31:956 -> 2079.00
10:54:31:967 -> 1906.00
10:54:31:977 -> 2060.00
10:54:31:987 -> 1942.00
10:54:31:998 -> 2070.00
10:54:32:008 -> 2015.00
10:54:32:018 -> 2045.00
10:54:32:029 -> 2016.00
10:54:32:039 -> 2013.00
10:54:32:053 -> 2041.00
10:54:32:063 -> 1945.00
10:54:32:074 -> 2115.00
10:54:32:084 -> 1960.00
10:54:32:095 -> 2114.00
10:54:32:105 -> 1986.00
10:54:32:115 -> 2109.00
10:54:32:126 -> 1978.00
10:54:32:136 -> 2039.00
10:54:32:147 -> 1854.00
10:54:32:157 -> 2084.00
10:54:32:167 -> 1993.00
10:54:32:178 -> 2052.00
10:54:32:189 -> 2019.00
10:54:32:220 -> 2017.00
10:54:32:221 -> 2073.00
10:54:32:221 -> 1967.00
10:54:32:230 -> 2061.00
10:54:32:240 -> 1963.00
10:54:32:251 -> 2095.00
10:54:32:261 -> 1971.00
10:54:32:271 -> 2105.00
10:54:32:281 -> 1903.00
10:54:32:292 -> 2130.00
10:54:32:303 -> 1931.00
10:54:32:312 -> 2076.00
10:54:32:323 -> 1943.00
10:54:32:333 -> 2080.00
10:54:32:343 -> 1920.00
10:54:32:354 -> 2081.00
10:54:32:364 -> 1978.00
10:54:32:374 -> 2086.00
10:54:32:385 -> 1944.00
10:54:32:395 -> 2113.00
10:54:32:405 -> 1938.00
10:54:32:416 -> 2099.00
10:54:32:426 -> 1889.00
10:54:32:436 -> 2075.00
10:54:32:447 -> 1964.00
10:54:32:457 -> 2043.00
10:54:32:467 -> 1954.00
10:54:32:477 -> 2049.00
10:54:32:488 -> 1988.00
10:54:32:498 -> 2020.00
10:54:32:508 -> 2033.00
10:54:32:519 -> 2037.00
10:54:32:529 -> 2052.00
10:54:32:539 -> 2018.00
10:54:32:550 -> 2078.00
10:54:32:560 -> 1962.00
10:54:32:570 -> 2085.00
10:54:32:580 -> 1966.00
10:54:32:591 -> 2117.00
10:54:32:601 -> 1962.00
10:54:32:612 -> 2111.00
10:54:32:622 -> 1955.00
10:54:32:632 -> 2076.00
10:54:32:643 -> 1962.00
10:54:32:653 -> 2102.00
10:54:32:663 -> 1925.00
10:54:32:698 -> 2098.00
10:54:32:699 -> 1928.00
10:54:32:699 -> 2103.00
10:54:32:705 -> 1907.00
10:54:32:715 -> 2124.00
10:54:32:743 -> 2042.00
10:54:32:743 -> 2076.00
10:54:32:746 -> 1854.00
10:54:32:756 -> 2069.00
10:54:32:766 -> 1964.00
10:54:32:777 -> 2061.00
10:54:32:787 -> 1990.00
10:54:32:797 -> 2035.00
10:54:32:808 -> 1998.00
10:54:32:819 -> 2025.00
10:54:32:829 -> 1998.00
10:54:32:839 -> 1985.00
10:54:32:850 -> 2061.00
10:54:32:860 -> 1977.00
10:54:32:874 -> 2049.00
10:54:32:880 -> 1958.00
10:54:32:890 -> 2060.00
10:54:32:901 -> 1937.00
10:54:32:911 -> 2049.00
10:54:32:921 -> 1938.00
10:54:32:932 -> 2102.00
10:54:32:942 -> 1961.00
10:54:32:953 -> 2092.00
10:54:32:963 -> 1952.00
10:54:32:974 -> 2101.00
10:54:32:984 -> 1974.00
10:54:32:994 -> 2078.00
10:54:33:004 -> 1968.00
10:54:33:015 -> 2112.00
10:54:33:029 -> 1946.00
10:54:33:035 -> 2087.00
10:54:33:046 -> 1934.00
10:54:33:056 -> 2038.00
10:54:33:066 -> 1937.00
10:54:33:076 -> 2073.00
10:54:33:087 -> 1973.00
10:54:33:097 -> 1939.00
10:54:33:108 -> 2002.00
10:54:33:118 -> 2026.00
10:54:33:128 -> 2063.00
10:54:33:139 -> 1990.00
10:54:33:149 -> 2076.00
10:54:33:160 -> 1957.00
10:54:33:170 -> 2076.00
10:54:33:180 -> 1985.00
10:54:33:191 -> 2065.00
10:54:33:201 -> 1935.00
10:54:33:211 -> 2124.00
10:54:33:222 -> 1942.00
10:54:33:232 -> 2064.00
10:54:33:242 -> 1953.00
10:54:33:267 -> 2111.00
10:54:33:268 -> 1923.00
10:54:33:273 -> 2106.00
10:54:33:283 -> 1955.00
10:54:33:294 -> 2126.00
10:54:33:304 -> 1920.00
10:54:33:315 -> 2119.00
10:54:33:325 -> 1926.00
10:54:33:335 -> 2100.00
10:54:33:346 -> 1911.00
10:54:33:356 -> 2052.00
10:54:33:366 -> 1967.00
10:54:33:378 -> 2061.00
10:54:33:387 -> 1996.00
10:54:33:398 -> 2106.00
10:54:33:408 -> 2015.00
10:54:33:418 -> 1999.00
10:54:33:428 -> 2030.00
10:54:33:439 -> 2027.00
10:54:33:449 -> 2051.00
10:54:33:459 -> 1948.00
10:54:33:470 -> 2071.00
10:54:33:480 -> 1971.00
10:54:33:490 -> 2052.00
10:54:33:500 -> 1965.00
10:54:33:511 -> 2087.00
10:54:33:521 -> 1975.00
10:54:33:531 -> 2108.00
10:54:33:541 -> 1915.00
10:54:33:552 -> 2082.00
10:54:33:562 -> 1956.00
10:54:33:572 -> 2127.00
10:54:33:583 -> 1901.00
10:54:33:593 -> 2111.00
10:54:33:603 -> 1893.00
10:54:33:614 -> 2100.00
10:54:33:624 -> 1940.00
10:54:33:634 -> 2117.00
10:54:33:645 -> 1966.00
10:54:33:655 -> 2106.00
10:54:33:665 -> 1936.00
10:54:33:677 -> 2101.00
10:54:33:686 -> 1925.00
10:54:33:696 -> 2051.00
10:54:33:706 -> 1967.00
10:54:33:717 -> 2051.00
10:54:33:755 -> 2018.00
10:54:33:755 -> 2001.00
10:54:33:755 -> 1995.00
10:54:33:758 -> 2017.00
10:54:33:788 -> 2024.00
10:54:33:789 -> 1973.00
10:54:33:789 -> 2036.00
10:54:33:799 -> 1986.00
10:54:33:809 -> 2071.00
10:54:33:819 -> 1988.00
10:54:33:829 -> 2085.00
10:54:33:840 -> 1948.00
10:54:33:850 -> 2113.00
10:54:33:860 -> 1948.00
10:54:33:876 -> 2089.00
10:54:33:881 -> 1941.00
10:54:33:891 -> 2108.00
10:54:33:902 -> 1945.00
10:54:33:912 -> 2044.00
10:54:33:923 -> 1967.00
10:54:33:933 -> 2099.00
10:54:33:944 -> 1955.00
10:54:33:954 -> 2113.00
10:54:33:964 -> 1931.00
10:54:33:974 -> 2072.00
10:54:33:985 -> 2042.00
10:54:33:995 -> 2088.00
10:54:34:005 -> 1903.00
10:54:34:016 -> 2031.00
10:54:34:026 -> 1976.00
10:54:34:036 -> 2040.00
10:54:34:047 -> 2003.00
10:54:34:057 -> 2020.00
10:54:34:067 -> 2011.00
10:54:34:078 -> 2014.00
10:54:34:088 -> 2058.00
10:54:34:098 -> 2004.00
10:54:34:109 -> 2065.00
10:54:34:119 -> 1997.00
10:54:34:129 -> 2117.00
10:54:34:140 -> 1942.00
10:54:34:150 -> 2063.00
10:54:34:160 -> 1954.00
10:54:34:171 -> 2085.00
10:54:34:181 -> 1956.00
10:54:34:191 -> 2109.00
10:54:34:202 -> 1937.00
10:54:34:212 -> 2132.00
10:54:34:222 -> 1876.00
10:54:34:233 -> 2128.00
10:54:34:247 -> 1966.00
10:54:34:253 -> 2109.00
10:54:34:264 -> 1942.00
10:54:34:274 -> 2131.00
10:54:34:284 -> 1959.00
10:54:34:313 -> 2109.00
10:54:34:313 -> 1879.00
10:54:34:315 -> 2107.00
10:54:34:326 -> 1967.00
10:54:34:336 -> 2044.00
10:54:34:346 -> 2005.00
10:54:34:360 -> 2045.00
10:54:34:367 -> 1975.00
10:54:34:377 -> 2004.00
10:54:34:388 -> 1990.00
10:54:34:398 -> 2024.00
10:54:34:408 -> 2053.00
10:54:34:418 -> 1994.00
10:54:34:429 -> 2067.00
10:54:34:439 -> 1982.00
10:54:34:449 -> 2070.00
10:54:34:460 -> 1932.00
10:54:34:470 -> 2067.00
10:54:34:480 -> 1950.00
10:54:34:491 -> 2097.00
10:54:34:501 -> 1970.00
10:54:34:511 -> 2105.00
10:54:34:522 -> 1933.00
10:54:34:532 -> 2130.00
10:54:34:543 -> 1960.00
10:54:34:580 -> 2125.00
10:54:34:580 -> 1962.00
10:54:34:580 -> 2101.00
10:54:34:584 -> 1955.00
10:54:34:594 -> 2110.00
10:54:34:604 -> 2065.00
10:54:34:615 -> 2091.00
10:54:34:625 -> 1866.00
10:54:34:635 -> 2050.00
10:54:34:646 -> 1946.00
10:54:34:656 -> 2043.00
10:54:34:666 -> 1975.00
10:54:34:677 -> 2021.00
10:54:34:687 -> 2030.00
10:54:34:698 -> 2011.00
10:54:34:708 -> 2068.00
10:54:34:718 -> 1977.00
10:54:34:731 -> 2044.00
10:54:34:741 -> 1985.00
10:54:34:752 -> 2105.00
10:54:34:763 -> 1944.00
10:54:34:773 -> 2126.00
10:54:34:783 -> 1941.00
10:54:34:794 -> 2074.00
10:54:34:804 -> 1971.00
10:54:34:830 -> 2105.00
10:54:34:831 -> 1887.00
10:54:34:835 -> 2083.00
10:54:34:845 -> 1916.00
10:54:34:856 -> 2048.00
10:54:34:868 -> 1968.00
10:54:34:876 -> 2053.00
10:54:34:887 -> 1980.00
10:54:34:897 -> 2042.00
10:54:34:907 -> 1994.00
10:54:34:918 -> 2020.00
10:54:34:928 -> 2062.00
10:54:34:938 -> 2012.00
10:54:34:949 -> 2053.00
10:54:34:963 -> 1981.00
10:54:34:969 -> 2074.00
10:54:34:980 -> 1896.00
10:54:34:990 -> 2118.00
10:54:35:001 -> 1953.00
10:54:35:012 -> 2119.00
10:54:35:022 -> 1940.00
10:54:35:032 -> 2134.00
10:54:35:042 -> 1927.00
10:54:35:052 -> 2149.00
10:54:35:063 -> 1959.00
10:54:35:073 -> 2137.00
10:54:35:083 -> 1968.00
10:54:35:094 -> 2106.00
10:54:35:104 -> 2062.00
10:54:35:115 -> 2084.00
10:54:35:126 -> 1927.00
10:54:35:136 -> 2061.00
10:54:35:146 -> 1990.00
10:54:35:156 -> 2029.00
10:54:35:167 -> 1972.00
10:54:35:177 -> 2049.00
10:54:35:187 -> 2043.00
10:54:35:198 -> 2002.00
10:54:35:208 -> 2047.00
10:54:35:218 -> 2013.00
10:54:35:228 -> 2072.00
10:54:35:239 -> 1984.00
10:54:35:249 -> 2088.00
10:54:35:259 -> 1997.00
10:54:35:270 -> 2059.00
10:54:35:280 -> 1951.00
10:54:35:291 -> 2113.00
10:54:35:301 -> 1916.00
10:54:35:311 -> 2120.00
10:54:35:326 -> 1941.00
10:54:35:351 -> 2113.00
10:54:35:351 -> 1925.00
10:54:35:352 -> 2135.00
10:54:35:363 -> 1909.00
10:54:35:373 -> 2130.00
10:54:35:383 -> 1926.00
10:54:35:394 -> 2100.00
10:54:35:404 -> 2057.00
10:54:35:414 -> 2092.00
10:54:35:425 -> 1864.00
10:54:35:435 -> 2082.00
10:54:35:445 -> 1969.00
10:54:35:456 -> 2069.00
10:54:35:466 -> 1975.00
10:54:35:477 -> 2067.00
10:54:35:487 -> 2009.00
10:54:35:497 -> 2024.00
10:54:35:508 -> 2042.00
10:54:35:518 -> 1988.00
10:54:35:529 -> 2076.00
10:54:35:540 -> 1963.00
10:54:35:550 -> 2049.00
10:54:35:579 -> 1944.00
10:54:35:580 -> 2098.00
10:54:35:581 -> 1900.00
10:54:35:591 -> 2106.00
10:54:35:602 -> 1973.00
10:54:35:612 -> 2122.00
10:54:35:623 -> 1934.00
10:54:35:633 -> 2041.00
10:54:35:643 -> 1945.00
10:54:35:653 -> 2112.00
10:54:35:664 -> 2013.00
10:54:35:674 -> 2102.00
10:54:35:684 -> 1865.00
10:54:35:695 -> 2049.00
10:54:35:705 -> 1963.00
10:54:35:715 -> 2074.00
10:54:35:726 -> 1952.00
10:54:35:736 -> 2067.00
10:54:35:746 -> 2015.00
10:54:35:756 -> 2026.00
10:54:35:767 -> 2043.00
10:54:35:777 -> 1970.00
10:54:35:793 -> 2081.00
10:54:35:798 -> 2001.00
10:54:35:808 -> 2084.00
10:54:35:819 -> 1969.00
10:54:35:829 -> 2092.00
10:54:35:839 -> 1964.00
10:54:35:865 -> 2090.00
10:54:35:866 -> 1948.00
10:54:35:870 -> 2065.00
10:54:35:880 -> 1957.00
10:54:35:891 -> 2114.00
10:54:35:901 -> 1913.00
10:54:35:912 -> 2152.00
10:54:35:922 -> 1942.00
10:54:35:932 -> 2109.00
10:54:35:942 -> 1910.00
10:54:35:953 -> 2110.00
10:54:35:963 -> 1932.00
10:54:35:973 -> 2107.00
10:54:35:984 -> 1869.00
10:54:35:994 -> 2096.00
10:54:36:004 -> 1909.00
10:54:36:014 -> 2126.00
10:54:36:025 -> 1948.00
10:54:36:036 -> 2068.00
10:54:36:046 -> 1987.00
10:54:36:056 -> 2046.00
10:54:36:067 -> 2012.00
10:54:36:077 -> 2037.00
10:54:36:087 -> 2004.00
10:54:36:097 -> 1994.00
10:54:36:108 -> 2061.00
10:54:36:118 -> 1983.00
10:54:36:129 -> 2065.00
10:54:36:139 -> 1964.00
10:54:36:149 -> 2079.00
10:54:36:159 -> 1920.00
10:54:36:170 -> 2086.00
10:54:36:180 -> 1940.00
10:54:36:190 -> 2113.00
10:54:36:201 -> 1943.00
10:54:36:212 -> 2125.00
10:54:36:221 -> 1922.00
10:54:36:232 -> 2163.00
10:54:36:242 -> 1902.00
10:54:36:252 -> 2093.00
10:54:36:263 -> 1926.00
10:54:36:273 -> 2109.00
10:54:36:283 -> 2013.00
10:54:36:294 -> 2094.00
10:54:36:304 -> 1899.00
10:54:36:314 -> 2093.00
10:54:36:325 -> 1974.00
10:54:36:335 -> 2056.00
10:54:36:345 -> 1964.00
10:54:36:355 -> 2051.00
10:54:36:386 -> 1986.00
10:54:36:387 -> 2015.00
10:54:36:387 -> 2026.00
10:54:36:397 -> 2019.00
10:54:36:407 -> 2074.00
10:54:36:418 -> 1990.00
10:54:36:428 -> 2054.00
10:54:36:438 -> 1971.00
10:54:36:448 -> 2064.00
10:54:36:459 -> 1956.00
10:54:36:495 -> 2042.00
10:54:36:496 -> 1964.00
10:54:36:496 -> 2103.00
10:54:36:500 -> 1920.00
10:54:36:514 -> 2062.00
10:54:36:521 -> 1957.00
10:54:36:531 -> 2152.00
10:54:36:542 -> 1908.00
10:54:36:552 -> 2109.00
10:54:36:562 -> 1959.00
10:54:36:572 -> 2007.00
10:54:36:583 -> 1936.00
10:54:36:593 -> 2120.00
10:54:36:603 -> 1911.00
10:54:36:614 -> 2085.00
10:54:36:624 -> 1864.00
10:54:36:634 -> 2070.00
10:54:36:645 -> 2015.00
10:54:36:655 -> 2096.00
10:54:36:665 -> 1983.00
10:54:36:676 -> 2051.00
10:54:36:686 -> 2016.00
10:54:36:696 -> 2011.00
10:54:36:706 -> 2030.00
10:54:36:717 -> 2042.00
10:54:36:727 -> 1985.00
10:54:36:737 -> 1967.00
10:54:36:748 -> 2083.00
10:54:36:758 -> 1945.00
10:54:36:768 -> 2095.00
10:54:36:779 -> 1981.00
10:54:36:791 -> 2033.00
10:54:36:800 -> 1992.00
10:54:36:810 -> 2080.00
10:54:36:820 -> 1936.00
10:54:36:831 -> 2180.00
10:54:36:841 -> 1962.00
10:54:36:851 -> 2160.00
10:54:36:861 -> 1948.00
10:54:36:872 -> 2129.00
10:54:36:882 -> 1986.00
10:54:36:909 -> 2157.00
10:54:36:909 -> 2088.00
10:54:36:913 -> 2104.00
10:54:36:923 -> 1861.00
10:54:36:934 -> 2033.00
10:54:36:945 -> 1910.00
10:54:36:954 -> 2071.00
10:54:36:964 -> 1903.00
10:54:36:975 -> 2119.00
10:54:36:985 -> 2008.00
10:54:36:996 -> 1996.00
10:54:37:006 -> 2022.00
10:54:37:016 -> 2038.00
10:54:37:026 -> 1999.00
10:54:37:037 -> 2010.00
10:54:37:047 -> 2035.00
10:54:37:060 -> 2017.00
10:54:37:068 -> 2031.00
10:54:37:078 -> 2013.00
10:54:37:088 -> 2102.00
10:54:37:098 -> 2039.00
10:54:37:109 -> 2100.00
10:54:37:119 -> 1908.00
10:54:37:130 -> 2092.00
10:54:37:140 -> 1897.00
10:54:37:150 -> 2134.00
10:54:37:161 -> 2005.00
10:54:37:171 -> 2121.00
10:54:37:181 -> 1928.00
10:54:37:191 -> 2093.00
10:54:37:201 -> 1976.00
10:54:37:212 -> 2112.00
10:54:37:222 -> 1952.00
10:54:37:233 -> 2074.00
10:54:37:243 -> 1976.00
10:54:37:253 -> 2100.00
10:54:37:263 -> 1882.00
10:54:37:274 -> 2071.00
10:54:37:284 -> 1977.00
10:54:37:294 -> 2085.00
10:54:37:304 -> 1953.00
10:54:37:315 -> 2090.00
10:54:37:325 -> 2023.00
10:54:37:335 -> 2004.00
10:54:37:350 -> 2055.00
10:54:37:356 -> 2013.00
10:54:37:366 -> 2051.00
10:54:37:377 -> 2025.00
10:54:37:388 -> 2054.00
10:54:37:398 -> 1964.00
10:54:37:426 -> 2130.00
10:54:37:427 -> 1974.00
10:54:37:429 -> 2082.00
10:54:37:439 -> 1975.00
10:54:37:450 -> 2063.00
10:54:37:460 -> 1971.00
10:54:37:471 -> 2107.00
10:54:37:481 -> 2009.00
10:54:37:491 -> 2059.00
10:54:37:502 -> 1982.00
10:54:37:532 -> 2107.00
10:54:37:532 -> 1933.00
10:54:37:532 -> 2094.00
10:54:37:543 -> 2031.00
10:54:37:553 -> 2058.00
10:54:37:563 -> 1875.00
10:54:37:574 -> 2095.00
10:54:37:584 -> 2007.00
10:54:37:595 -> 2003.00
10:54:37:605 -> 1962.00
10:54:37:615 -> 2022.00
10:54:37:626 -> 2029.00
10:54:37:636 -> 1980.00
10:54:37:646 -> 2046.00
10:54:37:657 -> 2011.00
10:54:37:667 -> 2095.00
10:54:37:677 -> 1999.00
10:54:37:688 -> 2078.00
10:54:37:698 -> 1978.00
10:54:37:708 -> 1994.00
10:54:37:719 -> 2008.00
10:54:37:729 -> 2052.00
10:54:37:739 -> 1965.00
10:54:37:750 -> 2071.00
10:54:37:760 -> 1926.00
10:54:37:770 -> 2129.00
10:54:37:781 -> 1970.00
10:54:37:791 -> 2124.00
10:54:37:801 -> 1960.00
10:54:37:812 -> 2110.00
10:54:37:822 -> 1949.00
10:54:37:832 -> 2137.00
10:54:37:843 -> 1971.00
10:54:37:853 -> 2061.00
10:54:37:863 -> 1920.00
10:54:37:874 -> 2077.00
10:54:37:884 -> 1955.00
10:54:37:894 -> 2073.00
10:54:37:905 -> 2004.00
10:54:37:915 -> 2059.00
10:54:37:925 -> 2013.00
10:54:37:943 -> 2035.00
10:54:37:946 -> 2045.00
10:54:37:956 -> 1983.00
10:54:37:966 -> 2078.00
10:54:37:977 -> 1975.00
10:54:37:987 -> 1995.00
10:54:37:997 -> 1962.00
10:54:38:008 -> 2112.00
10:54:38:018 -> 1917.00
10:54:38:028 -> 2113.00
10:54:38:039 -> 1968.00
10:54:38:049 -> 2085.00
10:54:38:059 -> 1957.00
10:54:38:070 -> 2087.00
10:54:38:080 -> 1942.00
10:54:38:090 -> 2137.00
10:54:38:101 -> 2001.00
10:54:38:111 -> 2110.00
10:54:38:121 -> 1887.00
10:54:38:132 -> 2071.00
10:54:38:142 -> 1951.00
10:54:38:152 -> 2111.00
10:54:38:163 -> 1888.00
10:54:38:173 -> 2098.00
10:54:38:183 -> 1880.00
10:54:38:197 -> 2059.00
10:54:38:204 -> 1939.00
10:54:38:214 -> 2075.00
10:54:38:224 -> 1991.00
10:54:38:235 -> 2056.00
10:54:38:245 -> 1996.00
10:54:38:255 -> 2052.00
10:54:38:266 -> 2019.00
10:54:38:276 -> 2040.00
10:54:38:286 -> 2030.00
10:54:38:296 -> 2001.00
10:54:38:307 -> 2019.00
10:54:38:346 -> 1997.00
10:54:38:347 -> 2082.00
10:54:38:347 -> 1970.00
10:54:38:348 -> 2091.00
10:54:38:358 -> 1969.00
10:54:38:369 -> 2083.00
10:54:38:379 -> 1954.00
10:54:38:390 -> 2096.00
10:54:38:399 -> 1964.00
10:54:38:410 -> 2088.00
10:54:38:420 -> 1958.00
10:54:38:431 -> 2106.00
10:54:38:441 -> 1928.00
10:54:38:459 -> 2086.00
10:54:38:462 -> 1976.00
10:54:38:472 -> 2096.00
10:54:38:483 -> 1910.00
10:54:38:493 -> 2080.00
10:54:38:503 -> 1869.00
10:54:38:513 -> 2066.00
10:54:38:523 -> 1918.00
10:54:38:534 -> 2031.00
10:54:38:544 -> 1961.00
10:54:38:554 -> 2070.00
10:54:38:565 -> 1989.00
10:54:38:580 -> 2048.00
10:54:38:585 -> 1999.00
10:54:38:596 -> 2037.00
10:54:38:606 -> 2052.00
10:54:38:616 -> 2013.00
10:54:38:627 -> 2040.00
10:54:38:637 -> 1991.00
10:54:38:647 -> 2086.00
10:54:38:658 -> 1987.00
10:54:38:668 -> 2078.00
10:54:38:678 -> 1946.00
10:54:38:688 -> 2071.00
10:54:38:699 -> 1952.00
10:54:38:709 -> 2098.00
10:54:38:719 -> 1950.00
10:54:38:730 -> 2082.00
10:54:38:740 -> 1930.00
10:54:38:750 -> 2113.00
10:54:38:760 -> 1927.00
10:54:38:771 -> 2124.00
10:54:38:781 -> 1925.00
10:54:38:792 -> 2088.00
10:54:38:802 -> 1870.00
10:54:38:812 -> 2123.00
10:54:38:823 -> 1893.00
10:54:38:833 -> 2094.00
10:54:38:843 -> 1917.00
10:54:38:854 -> 2084.00
10:54:38:864 -> 1945.00
10:54:38:874 -> 2077.00
10:54:38:885 -> 1965.00
10:54:38:899 -> 2036.00
10:54:38:905 -> 2023.00
10:54:38:915 -> 2054.00
10:54:38:926 -> 2035.00
10:54:38:936 -> 1993.00
10:54:38:946 -> 2064.00
10:54:38:956 -> 1992.00
10:54:38:983 -> 2081.00
10:54:38:984 -> 1964.00
10:54:38:987 -> 2080.00
10:54:38:998 -> 1952.00
10:54:39:008 -> 2089.00
10:54:39:019 -> 1946.00
10:54:39:029 -> 2067.00
10:54:39:039 -> 1935.00
10:54:39:049 -> 2097.00
10:54:39:060 -> 1965.00
10:54:39:070 -> 2124.00
10:54:39:080 -> 1934.00
10:54:39:091 -> 2073.00
10:54:39:101 -> 1978.00
10:54:39:111 -> 2136.00
10:54:39:122 -> 2048.00
10:54:39:132 -> 2125.00
10:54:39:142 -> 1856.00
10:54:39:153 -> 2057.00
10:54:39:163 -> 1938.00
10:54:39:185 -> 2078.00
10:54:39:187 -> 1988.00
10:54:39:204 -> 2026.00
10:54:39:205 -> 1984.00
10:54:39:214 -> 2035.00
10:54:39:225 -> 2023.00
10:54:39:235 -> 2001.00
10:54:39:245 -> 2006.00
10:54:39:256 -> 2033.00
10:54:39:266 -> 2046.00
10:54:39:276 -> 2021.00
10:54:39:286 -> 2018.00
10:54:39:297 -> 1965.00
10:54:39:307 -> 2068.00
10:54:39:317 -> 1946.00
10:54:39:328 -> 2085.00
10:54:39:338 -> 1950.00
10:54:39:349 -> 2109.00
10:54:39:359 -> 1959.00
10:54:39:374 -> 2127.00
10:54:39:380 -> 1917.00
10:54:39:390 -> 2121.00
10:54:39:401 -> 1912.00
10:54:39:411 -> 2102.00
10:54:39:421 -> 1960.00
10:54:39:431 -> 2093.00
10:54:39:442 -> 1895.00
10:54:39:452 -> 2106.00
10:54:39:462 -> 1905.00
10:54:39:473 -> 2092.00
10:54:39:505 -> 1954.00
10:54:39:506 -> 2076.00
10:54:39:506 -> 1941.00
10:54:39:514 -> 2044.00
10:54:39:524 -> 1991.00
10:54:39:535 -> 2023.00
10:54:39:545 -> 2049.00
10:54:39:555 -> 2055.00
10:54:39:565 -> 2022.00
10:54:39:576 -> 2013.00
10:54:39:586 -> 2074.00
10:54:39:597 -> 1959.00
10:54:39:607 -> 2095.00
10:54:39:617 -> 1991.00
10:54:39:629 -> 2076.00
10:54:39:638 -> 2002.00
10:54:39:649 -> 2083.00
10:54:39:659 -> 1932.00
10:54:39:669 -> 2098.00
10:54:39:680 -> 1951.00
10:54:39:689 -> 2081.00
10:54:39:700 -> 1947.00
10:54:39:710 -> 2122.00
10:54:39:720 -> 1906.00
10:54:39:731 -> 2129.00
10:54:39:741 -> 2043.00
10:54:39:751 -> 2107.00
10:54:39:762 -> 1865.00
10:54:39:772 -> 2097.00
10:54:39:784 -> 1934.00
10:54:39:793 -> 2073.00
10:54:39:803 -> 1973.00
10:54:39:813 -> 2067.00
10:54:39:824 -> 1953.00
10:54:39:834 -> 2046.00
10:54:39:844 -> 2048.00
10:54:39:855 -> 2013.00
10:54:39:865 -> 2049.00
10:54:39:877 -> 2007.00
10:54:39:886 -> 2062.00
10:54:39:896 -> 1997.00
10:54:39:906 -> 2065.00
10:54:39:917 -> 1895.00
10:54:39:927 -> 2082.00
10:54:39:937 -> 1979.00
10:54:39:947 -> 2051.00
10:54:39:958 -> 1954.00
10:54:39:968 -> 2093.00
10:54:39:979 -> 1952.00
10:54:40:027 -> 2108.00
10:54:40:029 -> 1936.00
10:54:40:029 -> 2121.00
10:54:40:029 -> 1936.00
10:54:40:030 -> 2128.00
10:54:40:041 -> 1949.00
10:54:40:051 -> 2116.00
10:54:40:061 -> 1977.00
10:54:40:071 -> 2097.00
10:54:40:082 -> 1860.00
10:54:40:092 -> 2113.00
10:54:40:102 -> 1930.00
10:54:40:112 -> 2107.00
10:54:40:123 -> 1977.00
10:54:40:133 -> 2063.00
10:54:40:144 -> 1978.00
10:54:40:154 -> 2043.00
10:54:40:164 -> 2039.00
10:54:40:175 -> 2012.00
10:54:40:185 -> 2053.00
10:54:40:195 -> 1971.00
10:54:40:205 -> 2102.00
10:54:40:216 -> 1988.00
10:54:40:226 -> 2080.00
10:54:40:237 -> 1984.00
10:54:40:247 -> 2063.00
10:54:40:257 -> 1941.00
10:54:40:267 -> 2108.00
10:54:40:278 -> 1940.00
10:54:40:288 -> 2116.00
10:54:40:298 -> 1938.00
10:54:40:309 -> 2107.00
10:54:40:319 -> 1943.00
10:54:40:329 -> 2092.00
10:54:40:340 -> 1919.00
10:54:40:353 -> 2123.00
10:54:40:360 -> 1912.00
10:54:40:371 -> 2128.00
10:54:40:381 -> 2010.00
10:54:40:391 -> 2081.00
10:54:40:401 -> 1901.00
10:54:40:412 -> 2101.00
10:54:40:422 -> 1944.00
10:54:40:432 -> 2064.00
10:54:40:443 -> 1926.00
10:54:40:453 -> 2071.00
10:54:40:463 -> 1970.00
10:54:40:474 -> 2059.00
10:54:40:484 -> 2004.00
10:54:40:494 -> 2018.00
10:54:40:505 -> 2015.00
10:54:40:515 -> 1999.00
10:54:40:525 -> 2049.00
10:54:40:544 -> 1999.00
10:54:40:546 -> 2088.00
10:54:40:556 -> 1978.00
10:54:40:566 -> 2084.00
10:54:40:577 -> 2082.00
10:54:40:587 -> 2090.00
10:54:40:598 -> 1926.00
10:54:40:608 -> 2082.00
10:54:40:618 -> 1929.00
10:54:40:628 -> 2110.00
10:54:40:639 -> 1901.00
10:54:40:649 -> 2136.00
10:54:40:660 -> 1938.00
10:54:40:670 -> 2152.00
10:54:40:680 -> 1943.00
10:54:40:691 -> 2111.00
10:54:40:702 -> 1861.00
10:54:40:711 -> 2102.00
10:54:40:722 -> 1942.00
10:54:40:732 -> 2052.00
10:54:40:742 -> 1976.00
10:54:40:753 -> 2058.00
10:54:40:763 -> 1953.00
10:54:40:773 -> 2086.00
10:54:40:784 -> 2006.00
10:54:40:794 -> 2041.00
10:54:40:804 -> 2052.00
10:54:40:815 -> 2019.00
10:54:40:825 -> 2066.00
10:54:40:840 -> 2000.00
10:54:40:845 -> 2070.00
10:54:40:856 -> 1977.00
10:54:40:866 -> 2053.00
10:54:40:877 -> 1945.00
10:54:40:887 -> 2085.00
10:54:40:897 -> 1948.00
10:54:40:907 -> 2083.00
10:54:40:917 -> 1912.00
10:54:40:928 -> 2114.00
10:54:40:938 -> 1908.00
10:54:40:949 -> 2111.00
10:54:40:983 -> 1943.00
10:54:40:983 -> 2141.00
10:54:40:983 -> 1936.00
10:54:40:990 -> 2128.00
10:54:41:000 -> 1946.00
10:54:41:010 -> 2121.00
10:54:41:024 -> 1926.00
10:54:41:031 -> 2087.00
10:54:41:041 -> 1880.00
10:54:41:075 -> 2047.00
10:54:41:075 -> 1939.00
10:54:41:075 -> 2070.00
10:54:41:082 -> 1974.00
10:54:41:093 -> 2059.00
10:54:41:103 -> 2026.00
10:54:41:113 -> 2061.00
10:54:41:124 -> 2032.00
10:54:41:135 -> 2022.00
10:54:41:144 -> 2030.00
10:54:41:155 -> 1947.00
10:54:41:165 -> 2058.00
10:54:41:175 -> 1999.00
10:54:41:186 -> 2056.00
10:54:41:196 -> 1977.00
10:54:41:206 -> 2051.00
10:54:41:217 -> 1950.00
10:54:41:227 -> 2090.00
10:54:41:238 -> 1950.00
10:54:41:248 -> 2071.00
10:54:41:258 -> 1953.00
10:54:41:268 -> 2158.00
10:54:41:279 -> 1940.00
10:54:41:289 -> 2130.00
10:54:41:300 -> 1934.00
10:54:41:310 -> 2124.00
10:54:41:320 -> 2093.00
10:54:41:330 -> 2110.00
10:54:41:341 -> 1858.00
10:54:41:351 -> 2099.00
10:54:41:363 -> 1958.00
10:54:41:372 -> 2122.00
10:54:41:382 -> 1970.00
10:54:41:392 -> 2043.00
10:54:41:403 -> 1971.00
10:54:41:413 -> 2015.00
10:54:41:423 -> 2006.00
10:54:41:434 -> 2009.00
10:54:41:444 -> 2035.00
10:54:41:454 -> 2003.00
10:54:41:464 -> 2080.00
10:54:41:475 -> 1972.00
10:54:41:485 -> 2074.00
10:54:41:495 -> 1986.00
10:54:41:506 -> 2108.00
10:54:41:516 -> 1941.00
10:54:41:526 -> 2073.00
10:54:41:537 -> 1938.00
10:54:41:547 -> 2096.00
10:54:41:557 -> 1977.00
10:54:41:574 -> 2113.00
10:54:41:591 -> 1957.00
10:54:41:591 -> 2088.00
10:54:41:599 -> 1950.00
10:54:41:609 -> 2096.00
10:54:41:619 -> 1898.00
10:54:41:630 -> 2103.00
10:54:41:640 -> 1927.00
10:54:41:650 -> 2094.00
10:54:41:661 -> 1894.00
10:54:41:671 -> 2093.00
10:54:41:681 -> 1927.00
10:54:41:692 -> 2099.00
10:54:41:702 -> 1927.00
10:54:41:712 -> 2044.00
10:54:41:722 -> 2016.00
10:54:41:733 -> 2017.00
10:54:41:743 -> 2040.00
10:54:41:753 -> 2035.00
10:54:41:764 -> 2050.00
10:54:41:774 -> 2050.00
10:54:41:784 -> 2064.00
10:54:41:821 -> 2010.00
10:54:41:822 -> 2065.00
10:54:41:822 -> 2011.00
10:54:41:825 -> 1991.00
10:54:41:836 -> 1910.00
10:54:41:846 -> 2086.00
10:54:41:856 -> 1960.00
10:54:41:867 -> 2086.00
10:54:41:877 -> 1953.00
10:54:41:887 -> 2092.00
10:54:41:898 -> 1973.00
10:54:41:908 -> 2034.00
10:54:41:918 -> 1880.00
10:54:41:929 -> 2100.00
10:54:41:939 -> 1952.00
10:54:41:949 -> 2117.00
10:54:41:960 -> 2063.00
10:54:41:970 -> 2159.00
10:54:41:980 -> 1847.00
10:54:41:990 -> 2046.00
10:54:42:001 -> 1889.00
10:54:42:011 -> 2098.00
10:54:42:022 -> 2002.00
10:54:42:031 -> 2068.00
10:54:42:042 -> 1978.00
10:54:42:052 -> 2099.00
10:54:42:063 -> 2000.00
10:54:42:074 -> 2083.00
10:54:42:083 -> 2070.00
10:54:42:111 -> 2049.00
10:54:42:112 -> 2009.00
10:54:42:114 -> 1905.00
10:54:42:124 -> 2152.00
10:54:42:134 -> 2005.00
10:54:42:145 -> 2049.00
10:54:42:155 -> 1916.00
10:54:42:166 -> 2187.00
10:54:42:176 -> 1961.00
10:54:42:186 -> 2104.00
10:54:42:197 -> 1980.00
10:54:42:207 -> 2184.00
10:54:42:217 -> 1860.00
10:54:42:228 -> 2170.00
10:54:42:238 -> 1968.00
10:54:42:249 -> 2064.00
10:54:42:259 -> 1949.00
10:54:42:269 -> 2040.00
10:54:42:279 -> 1972.00
10:54:42:290 -> 2087.00
10:54:42:300 -> 1835.00
10:54:42:310 -> 2034.00
10:54:42:321 -> 1922.00
10:54:42:331 -> 2129.00
10:54:42:341 -> 1935.00
10:54:42:352 -> 1997.00
10:54:42:362 -> 2045.00
10:54:42:372 -> 2005.00
10:54:42:383 -> 2011.00
10:54:42:393 -> 2004.00
10:54:42:403 -> 2015.00
10:54:42:413 -> 2069.00
10:54:42:424 -> 1990.00
10:54:42:434 -> 1939.00
10:54:42:445 -> 2102.00
10:54:42:455 -> 2011.00
10:54:42:465 -> 2124.00
10:54:42:475 -> 2017.00
10:54:42:486 -> 2109.00
10:54:42:496 -> 2008.00
10:54:42:506 -> 1992.00
10:54:42:517 -> 1935.00
10:54:42:527 -> 2136.00
10:54:42:537 -> 1885.00
10:54:42:547 -> 2165.00
10:54:42:558 -> 1945.00
10:54:42:568 -> 2148.00
10:54:42:578 -> 1926.00
10:54:42:588 -> 2118.00
10:54:42:599 -> 1941.00
10:54:42:609 -> 2123.00
10:54:42:632 -> 1894.00
10:54:42:635 -> 2107.00
10:54:42:640 -> 1919.00
10:54:42:651 -> 2073.00
10:54:42:661 -> 1972.00
10:54:42:689 -> 2035.00
10:54:42:690 -> 1952.00
10:54:42:692 -> 2029.00
10:54:42:702 -> 2033.00
10:54:42:713 -> 2054.00
10:54:42:723 -> 2057.00
10:54:42:733 -> 1920.00
10:54:42:743 -> 2067.00
10:54:42:754 -> 1996.00
10:54:42:764 -> 2078.00
10:54:42:774 -> 1919.00
10:54:42:785 -> 2081.00
10:54:42:795 -> 1944.00
10:54:42:805 -> 2098.00
10:54:42:816 -> 1944.00
10:54:42:826 -> 2088.00
10:54:42:836 -> 1893.00
10:54:42:847 -> 2129.00
10:54:42:862 -> 1938.00
10:54:42:868 -> 2129.00
10:54:42:878 -> 1939.00
10:54:42:888 -> 2117.00
10:54:42:899 -> 2005.00
10:54:42:909 -> 2117.00
10:54:42:919 -> 1875.00
10:54:42:930 -> 2091.00
10:54:42:940 -> 1946.00
10:54:42:950 -> 2061.00
10:54:42:961 -> 1981.00
10:54:42:971 -> 2065.00
10:54:42:982 -> 1979.00
10:54:42:992 -> 2048.00
10:54:43:012 -> 2052.00
10:54:43:002 -> 2006.00
10:54:43:023 -> 2045.00
10:54:43:033 -> 2009.00
10:54:43:043 -> 2063.00
10:54:43:054 -> 1975.00
10:54:43:064 -> 2095.00
10:54:43:074 -> 1963.00
10:54:43:085 -> 2066.00
10:54:43:095 -> 1963.00
10:54:43:105 -> 2091.00
10:54:43:116 -> 1924.00
10:54:43:150 -> 2094.00
10:54:43:150 -> 1899.00
10:54:43:150 -> 2076.00
10:54:43:160 -> 1895.00
10:54:43:170 -> 2085.00
10:54:43:180 -> 1951.00
10:54:43:191 -> 2010.00
10:54:43:201 -> 1989.00
10:54:43:211 -> 2044.00
10:54:43:222 -> 2069.00
10:54:43:232 -> 2031.00
10:54:43:243 -> 2059.00
10:54:43:273 -> 1959.00
10:54:43:253 -> 2006.00
10:54:43:263 -> 2066.00
10:54:43:284 -> 2084.00
10:54:43:295 -> 1984.00
10:54:43:305 -> 2059.00
10:54:43:315 -> 1954.00
10:54:43:325 -> 2104.00
10:54:43:335 -> 1954.00
10:54:43:346 -> 2071.00
10:54:43:356 -> 1925.00
10:54:43:366 -> 2127.00
10:54:43:377 -> 1935.00
10:54:43:388 -> 2111.00
10:54:43:398 -> 1946.00
10:54:43:408 -> 2127.00
10:54:43:418 -> 1986.00
10:54:43:429 -> 2132.00
10:54:43:439 -> 1858.00
10:54:43:450 -> 2110.00
10:54:43:460 -> 1955.00
10:54:43:470 -> 2082.00
10:54:43:481 -> 1970.00
10:54:43:491 -> 2014.00
10:54:43:502 -> 2016.00
10:54:43:512 -> 2038.00
10:54:43:522 -> 2028.00
10:54:43:533 -> 2021.00
10:54:43:543 -> 2036.00
10:54:43:553 -> 2000.00
10:54:43:563 -> 2059.00
10:54:43:574 -> 1969.00
10:54:43:584 -> 2089.00
10:54:43:611 -> 1979.00
10:54:43:611 -> 2100.00
10:54:43:615 -> 1975.00
10:54:43:625 -> 2104.00
10:54:43:635 -> 1922.00
10:54:43:646 -> 2140.00
10:54:43:672 -> 1928.00
10:54:43:673 -> 2114.00
10:54:43:676 -> 1934.00
10:54:43:687 -> 2102.00
10:54:43:697 -> 1906.00
10:54:43:707 -> 2138.00
10:54:43:718 -> 1942.00
10:54:43:728 -> 2094.00
10:54:43:739 -> 1885.00
10:54:43:749 -> 2127.00
10:54:43:759 -> 1905.00
10:54:43:770 -> 2101.00
10:54:43:784 -> 1990.00
10:54:43:790 -> 2057.00
10:54:43:800 -> 1985.00
10:54:43:811 -> 2044.00
10:54:43:821 -> 2009.00
10:54:43:831 -> 2040.00
10:54:43:842 -> 2028.00
10:54:43:852 -> 2001.00
10:54:43:863 -> 2046.00
10:54:43:873 -> 1988.00
10:54:43:883 -> 2078.00
10:54:43:893 -> 1969.00
10:54:43:904 -> 2068.00
10:54:43:915 -> 1948.00
10:54:43:925 -> 2097.00
10:54:43:935 -> 1929.00
10:54:43:945 -> 2071.00
10:54:43:956 -> 1944.00
10:54:43:966 -> 2105.00
10:54:43:976 -> 1949.00
10:54:43:986 -> 2115.00
10:54:43:997 -> 1951.00
10:54:44:007 -> 2093.00
10:54:44:018 -> 1909.00
10:54:44:028 -> 2088.00
10:54:44:038 -> 1891.00
10:54:44:049 -> 2096.00
10:54:44:059 -> 1876.00
10:54:44:073 -> 2087.00
10:54:44:079 -> 1969.00
10:54:44:090 -> 2073.00
10:54:44:100 -> 1935.00
10:54:44:111 -> 2071.00
10:54:44:121 -> 2010.00
10:54:44:131 -> 2033.00
10:54:44:141 -> 2038.00
10:54:44:152 -> 2038.00
10:54:44:162 -> 2057.00
10:54:44:189 -> 2002.00
10:54:44:189 -> 2065.00
10:54:44:193 -> 1963.00
10:54:44:204 -> 2083.00
10:54:44:214 -> 1959.00
10:54:44:224 -> 2088.00
10:54:44:235 -> 1934.00
10:54:44:246 -> 2097.00
10:54:44:256 -> 1941.00
10:54:44:266 -> 2146.00
10:54:44:276 -> 1924.00
10:54:44:286 -> 2124.00
10:54:44:297 -> 1932.00
10:54:44:307 -> 2094.00
10:54:44:317 -> 1954.00
10:54:44:328 -> 2109.00
10:54:44:338 -> 1907.00
10:54:44:352 -> 2107.00
10:54:44:359 -> 1898.00
10:54:44:369 -> 2072.00
10:54:44:379 -> 1956.00
10:54:44:390 -> 2077.00
10:54:44:400 -> 1979.00
10:54:44:411 -> 2043.00
10:54:44:421 -> 2013.00
10:54:44:431 -> 2032.00
10:54:44:441 -> 2023.00
10:54:44:452 -> 2024.00
10:54:44:463 -> 2074.00
10:54:44:476 -> 1988.00
10:54:44:483 -> 2032.00
10:54:44:494 -> 1977.00
10:54:44:504 -> 2078.00
10:54:44:514 -> 1956.00
10:54:44:524 -> 2081.00
10:54:44:535 -> 1961.00
10:54:44:545 -> 2124.00
10:54:44:555 -> 1937.00
10:54:44:565 -> 2135.00
10:54:44:576 -> 1964.00
10:54:44:586 -> 2138.00
10:54:44:597 -> 1933.00
10:54:44:635 -> 2109.00
10:54:44:635 -> 1963.00
10:54:44:635 -> 2066.00
10:54:44:638 -> 1944.00
10:54:44:648 -> 2108.00
10:54:44:658 -> 1862.00
10:54:44:669 -> 2098.00
10:54:44:679 -> 1958.00
10:54:44:707 -> 2082.00
10:54:44:708 -> 1993.00
10:54:44:710 -> 2047.00
10:54:44:720 -> 2024.00
10:54:44:731 -> 2034.00
10:54:44:741 -> 1994.00
10:54:44:752 -> 2030.00
10:54:44:762 -> 2098.00
10:54:44:772 -> 1997.00
10:54:44:783 -> 2089.00
10:54:44:795 -> 1972.00
10:54:44:803 -> 2067.00
10:54:44:814 -> 1949.00
10:54:44:824 -> 2047.00
10:54:44:834 -> 1944.00
10:54:44:844 -> 2088.00
10:54:44:855 -> 1935.00
10:54:44:865 -> 2113.00
10:54:44:875 -> 1948.00
10:54:44:886 -> 2150.00
10:54:44:896 -> 1946.00
10:54:44:906 -> 2116.00
10:54:44:917 -> 1918.00
10:54:44:927 -> 2048.00
10:54:44:938 -> 1945.00
10:54:44:948 -> 2076.00
10:54:44:958 -> 1904.00
10:54:44:969 -> 2109.00
10:54:44:979 -> 1964.00
10:54:44:989 -> 2083.00
10:54:45:004 -> 1957.00
10:54:45:010 -> 2054.00
10:54:45:020 -> 1967.00
10:54:45:030 -> 2048.00
10:54:45:041 -> 2014.00
10:54:45:051 -> 2026.00
10:54:45:062 -> 2076.00
10:54:45:072 -> 1993.00
10:54:45:082 -> 2077.00
10:54:45:093 -> 1994.00
10:54:45:103 -> 2097.00
10:54:45:113 -> 1935.00
10:54:45:124 -> 2095.00
10:54:45:134 -> 1955.00
10:54:45:147 -> 2096.00
10:54:45:155 -> 1949.00
10:54:45:165 -> 2122.00
10:54:45:175 -> 1928.00
10:54:45:186 -> 2149.00
10:54:45:196 -> 1894.00
10:54:45:206 -> 2096.00
10:54:45:233 -> 1946.00
10:54:45:235 -> 2093.00
10:54:45:237 -> 2058.00
10:54:45:247 -> 2098.00
10:54:45:258 -> 1877.00
10:54:45:268 -> 2083.00
10:54:45:278 -> 1913.00
10:54:45:289 -> 2081.00
10:54:45:299 -> 1984.00
10:54:45:309 -> 2070.00
10:54:45:320 -> 1989.00
10:54:45:330 -> 2033.00
10:54:45:341 -> 1985.00
10:54:45:351 -> 2013.00
10:54:45:362 -> 2035.00
10:54:45:372 -> 2001.00
10:54:45:382 -> 2095.00
10:54:45:392 -> 1944.00
10:54:45:403 -> 2088.00
10:54:45:413 -> 1944.00
10:54:45:441 -> 2096.00
10:54:45:441 -> 1953.00
10:54:45:444 -> 2060.00
10:54:45:454 -> 1950.00
10:54:45:465 -> 2120.00
10:54:45:475 -> 1964.00
10:54:45:485 -> 2127.00
10:54:45:496 -> 1941.00
10:54:45:509 -> 2151.00
10:54:45:516 -> 1935.00
10:54:45:526 -> 2107.00
10:54:45:537 -> 1940.00
10:54:45:547 -> 2103.00
10:54:45:557 -> 1885.00
10:54:45:568 -> 2093.00
10:54:45:578 -> 1917.00
10:54:45:588 -> 2077.00
10:54:45:599 -> 1964.00
10:54:45:609 -> 2062.00
10:54:45:619 -> 2008.00
10:54:45:630 -> 2048.00
10:54:45:640 -> 2006.00
10:54:45:650 -> 2005.00
10:54:45:661 -> 2022.00
10:54:45:671 -> 2018.00
10:54:45:681 -> 2041.00
10:54:45:692 -> 1993.00
10:54:45:702 -> 2084.00
10:54:45:713 -> 1981.00
10:54:45:723 -> 2078.00
10:54:45:756 -> 1950.00
10:54:45:757 -> 2104.00
10:54:45:757 -> 1930.00
10:54:45:764 -> 2103.00
10:54:45:774 -> 1956.00
10:54:45:784 -> 2107.00
10:54:45:795 -> 1920.00
10:54:45:805 -> 2126.00
10:54:45:815 -> 1935.00
10:54:45:827 -> 2111.00
10:54:45:836 -> 1954.00
10:54:45:846 -> 2108.00
10:54:45:857 -> 1936.00
10:54:45:867 -> 2105.00
10:54:45:877 -> 1874.00
10:54:45:888 -> 2081.00
10:54:45:898 -> 1933.00
10:54:45:908 -> 2104.00
10:54:45:919 -> 1954.00
10:54:45:929 -> 2046.00
10:54:45:939 -> 1958.00
10:54:45:950 -> 2064.00
10:54:45:960 -> 1991.00
10:54:45:970 -> 2030.00
10:54:45:981 -> 2016.00
10:54:45:991 -> 2025.00
10:54:46:001 -> 1999.00
10:54:46:011 -> 1994.00
10:54:46:022 -> 2066.00
10:54:46:032 -> 1970.00
10:54:46:043 -> 2073.00
10:54:46:053 -> 1892.00
10:54:46:063 -> 2076.00
10:54:46:074 -> 1945.00
10:54:46:084 -> 2118.00
10:54:46:094 -> 1943.00
10:54:46:104 -> 2124.00
10:54:46:118 -> 1959.00
10:54:46:125 -> 2094.00
10:54:46:135 -> 1954.00
10:54:46:146 -> 2140.00
10:54:46:156 -> 1912.00
10:54:46:166 -> 2102.00
10:54:46:177 -> 2059.00
10:54:46:187 -> 2114.00
10:54:46:197 -> 1878.00
10:54:46:207 -> 2107.00
10:54:46:218 -> 1905.00
10:54:46:228 -> 2094.00
10:54:46:238 -> 1990.00
10:54:46:249 -> 2072.00
10:54:46:280 -> 1996.00
10:54:46:280 -> 2050.00
10:54:46:280 -> 1999.00
10:54:46:292 -> 2068.00
10:54:46:301 -> 2028.00
10:54:46:311 -> 1988.00
10:54:46:321 -> 2060.00
10:54:46:331 -> 2011.00
10:54:46:342 -> 2072.00
10:54:46:353 -> 1988.00
10:54:46:363 -> 2075.00
10:54:46:373 -> 1941.00
10:54:46:383 -> 2079.00
10:54:46:393 -> 1913.00
10:54:46:404 -> 2117.00
10:54:46:414 -> 1965.00
10:54:46:424 -> 2085.00
10:54:46:435 -> 1911.00
10:54:46:445 -> 2116.00
10:54:46:455 -> 1931.00
10:54:46:466 -> 2106.00
10:54:46:495 -> 1952.00
10:54:46:495 -> 2128.00
10:54:46:496 -> 2023.00
10:54:46:507 -> 2101.00
10:54:46:517 -> 1826.00
10:54:46:527 -> 2113.00
10:54:46:538 -> 1921.00
10:54:46:548 -> 2084.00
10:54:46:558 -> 1936.00
10:54:46:569 -> 2075.00
10:54:46:579 -> 2012.00
10:54:46:590 -> 2051.00
10:54:46:604 -> 1996.00
10:54:46:614 -> 1918.00
10:54:46:625 -> 2133.00
10:54:46:635 -> 1925.00
10:54:46:646 -> 2102.00
10:54:46:655 -> 1937.00
10:54:46:666 -> 2134.00
10:54:46:676 -> 1953.00
10:54:46:686 -> 2116.00
10:54:46:697 -> 2030.00
10:54:46:707 -> 2107.00
10:54:46:717 -> 1875.00
10:54:46:727 -> 2113.00
10:54:46:738 -> 1949.00
10:54:46:748 -> 2093.00
10:54:46:758 -> 1997.00
10:54:46:769 -> 2073.00
10:54:46:779 -> 1983.00
10:54:46:801 -> 2027.00
10:54:46:801 -> 2009.00
10:54:46:810 -> 2013.00
10:54:46:821 -> 2038.00
10:54:46:831 -> 1983.00
10:54:46:841 -> 2039.00
10:54:46:851 -> 2006.00
10:54:46:862 -> 2092.00
10:54:46:872 -> 1967.00
10:54:46:882 -> 2098.00
10:54:46:893 -> 1948.00
10:54:46:903 -> 2069.00
10:54:46:914 -> 1978.00
10:54:46:924 -> 2128.00
10:54:46:934 -> 1909.00
10:54:46:944 -> 2210.00
10:54:46:960 -> 1943.00
10:54:46:965 -> 2148.00
10:54:46:975 -> 1935.00
10:54:46:986 -> 2163.00
10:54:46:996 -> 2012.00
10:54:47:006 -> 2097.00
10:54:47:017 -> 1874.00
10:54:47:027 -> 2089.00
10:54:47:037 -> 1901.00
10:54:47:048 -> 2070.00
10:54:47:058 -> 1999.00
10:54:47:068 -> 2033.00
10:54:47:079 -> 2004.00
10:54:47:089 -> 2024.00
10:54:47:099 -> 2040.00
10:54:47:110 -> 1993.00
10:54:47:120 -> 2054.00
10:54:47:130 -> 2030.00
10:54:47:140 -> 2042.00
10:54:47:151 -> 1977.00
10:54:47:161 -> 2104.00
10:54:47:171 -> 1898.00
10:54:47:181 -> 2091.00
10:54:47:192 -> 2022.00
10:54:47:202 -> 2165.00
10:54:47:213 -> 1938.00
10:54:47:223 -> 2125.00
10:54:47:233 -> 1977.00
10:54:47:243 -> 2059.00
10:54:47:254 -> 1918.00
10:54:47:265 -> 2050.00
10:54:47:276 -> 1946.00
10:54:47:286 -> 2176.00
10:54:47:296 -> 1821.00
10:54:47:323 -> 2091.00
10:54:47:324 -> 1940.00
10:54:47:327 -> 2138.00
10:54:47:338 -> 1865.00
10:54:47:348 -> 2025.00
10:54:47:358 -> 1948.00
10:54:47:369 -> 1989.00
10:54:47:379 -> 1925.00
10:54:47:389 -> 2061.00
10:54:47:400 -> 2038.00
10:54:47:414 -> 2024.00
10:54:47:420 -> 2039.00
10:54:47:430 -> 1980.00
10:54:47:441 -> 2051.00
10:54:47:451 -> 1927.00
10:54:47:461 -> 2134.00
10:54:47:481 -> 1963.00
10:54:47:498 -> 2124.00
10:54:47:498 -> 2031.00
10:54:47:505 -> 2126.00
10:54:47:513 -> 2001.00
10:54:47:523 -> 2103.00
10:54:47:533 -> 1979.00
10:54:47:544 -> 2014.00
10:54:47:554 -> 1912.00
10:54:47:565 -> 2166.00
10:54:47:575 -> 1975.00
10:54:47:585 -> 2057.00
10:54:47:596 -> 1899.00
10:54:47:606 -> 2157.00
10:54:47:616 -> 1852.00
10:54:47:627 -> 2124.00
10:54:47:637 -> 1916.00
10:54:47:647 -> 2100.00
10:54:47:657 -> 1965.00
10:54:47:668 -> 2127.00
10:54:47:678 -> 2022.00
10:54:47:688 -> 2031.00
10:54:47:699 -> 2072.00
10:54:47:709 -> 2065.00
10:54:47:719 -> 2092.00
10:54:47:730 -> 2082.00
10:54:47:740 -> 2005.00
10:54:47:750 -> 2002.00
10:54:47:762 -> 2054.00
10:54:47:771 -> 1896.00
10:54:47:781 -> 2303.00
10:54:47:791 -> 1944.00
10:54:47:802 -> 2078.00
10:54:47:812 -> 1946.00
10:54:47:839 -> 2094.00
10:54:47:840 -> 1963.00
10:54:47:843 -> 2100.00
10:54:47:853 -> 1907.00
10:54:47:864 -> 2109.00
10:54:47:874 -> 1934.00
10:54:47:885 -> 2055.00
10:54:47:895 -> 1947.00
10:54:47:905 -> 2115.00
10:54:47:916 -> 1939.00
10:54:47:926 -> 2082.00
10:54:47:937 -> 1999.00
10:54:47:947 -> 2082.00
10:54:47:957 -> 1982.00
10:54:47:968 -> 2043.00
10:54:47:979 -> 1978.00
10:54:47:989 -> 2033.00
10:54:47:999 -> 2006.00
10:54:48:013 -> 2042.00
10:54:48:020 -> 2071.00
10:54:48:030 -> 1946.00
10:54:48:041 -> 2088.00
10:54:48:051 -> 1970.00
10:54:48:062 -> 2057.00
10:54:48:072 -> 1930.00
10:54:48:082 -> 2057.00
10:54:48:092 -> 1968.00
10:54:48:103 -> 2131.00
10:54:48:113 -> 1934.00
10:54:48:123 -> 2143.00
10:54:48:134 -> 1932.00
10:54:48:145 -> 2164.00
10:54:48:154 -> 1935.00
10:54:48:165 -> 2098.00
10:54:48:175 -> 2010.00
10:54:48:185 -> 2097.00
10:54:48:196 -> 1863.00
10:54:48:206 -> 2090.00
10:54:48:217 -> 1968.00
10:54:48:227 -> 2029.00
10:54:48:237 -> 1951.00
10:54:48:247 -> 2026.00
10:54:48:258 -> 2000.00
10:54:48:268 -> 2072.00
10:54:48:278 -> 2044.00
10:54:48:289 -> 2011.00
10:54:48:299 -> 2037.00
10:54:48:309 -> 2004.00
10:54:48:320 -> 2092.00
10:54:48:330 -> 1989.00
10:54:48:357 -> 2081.00
10:54:48:359 -> 1977.00
10:54:48:371 -> 1985.00
10:54:48:382 -> 2088.00
10:54:48:361 -> 2120.00
10:54:48:395 -> 1940.00
10:54:48:403 -> 2117.00
10:54:48:413 -> 1942.00
10:54:48:423 -> 2117.00
10:54:48:434 -> 1939.00
10:54:48:444 -> 2086.00
10:54:48:454 -> 1937.00
10:54:48:466 -> 2055.00
10:54:48:475 -> 1990.00
10:54:48:485 -> 2085.00
10:54:48:496 -> 1911.00
10:54:48:506 -> 2106.00
10:54:48:516 -> 1964.00
10:54:48:526 -> 2047.00
10:54:48:537 -> 1953.00
10:54:48:547 -> 2062.00
10:54:48:558 -> 2022.00
10:54:48:568 -> 2050.00
10:54:48:578 -> 2020.00
10:54:48:611 -> 2015.00
10:54:48:613 -> 2063.00
10:54:48:613 -> 1975.00
10:54:48:619 -> 2085.00
10:54:48:630 -> 1986.00
10:54:48:640 -> 2069.00
10:54:48:650 -> 1981.00
10:54:48:660 -> 2088.00
10:54:48:671 -> 1956.00
10:54:48:681 -> 2109.00
10:54:48:692 -> 1949.00
10:54:48:702 -> 2137.00
10:54:48:712 -> 1936.00
10:54:48:722 -> 2144.00
10:54:48:733 -> 1952.00
10:54:48:743 -> 2117.00
10:54:48:753 -> 1919.00
10:54:48:764 -> 2135.00
10:54:48:774 -> 1939.00
10:54:48:784 -> 2067.00
10:54:48:796 -> 1889.00
10:54:48:805 -> 2096.00
10:54:48:815 -> 1901.00
10:54:48:829 -> 2079.00
10:54:48:836 -> 1945.00
10:54:48:846 -> 2093.00
10:54:48:875 -> 1937.00
10:54:48:875 -> 2033.00
10:54:48:877 -> 2015.00
10:54:48:888 -> 2037.00
10:54:48:898 -> 2028.00
10:54:48:908 -> 2024.00
10:54:48:918 -> 2046.00
10:54:48:929 -> 2036.00
10:54:48:939 -> 2050.00
10:54:48:949 -> 1945.00
10:54:48:960 -> 2057.00
10:54:48:970 -> 1956.00
10:54:48:981 -> 2093.00
10:54:48:991 -> 1911.00
10:54:49:003 -> 2105.00
10:54:49:012 -> 1946.00
10:54:49:022 -> 2127.00
10:54:49:032 -> 1958.00
10:54:49:042 -> 2097.00
10:54:49:053 -> 1946.00
10:54:49:063 -> 2111.00
10:54:49:074 -> 1930.00
10:54:49:084 -> 2119.00
10:54:49:096 -> 2050.00
10:54:49:104 -> 2057.00
10:54:49:115 -> 1887.00
10:54:49:125 -> 2097.00
10:54:49:136 -> 1904.00
10:54:49:146 -> 2078.00
10:54:49:157 -> 2004.00
10:54:49:167 -> 2012.00
10:54:49:177 -> 2014.00
10:54:49:187 -> 1989.00
10:54:49:198 -> 2020.00
10:54:49:208 -> 2031.00
10:54:49:230 -> 2049.00
10:54:49:234 -> 1995.00
10:54:49:238 -> 2009.00
10:54:49:249 -> 2010.00
10:54:49:259 -> 2069.00
10:54:49:269 -> 1986.00
10:54:49:280 -> 2088.00
10:54:49:290 -> 1908.00
10:54:49:300 -> 2081.00
10:54:49:311 -> 1942.00
10:54:49:321 -> 2064.00
10:54:49:331 -> 1958.00
10:54:49:342 -> 2122.00
10:54:49:352 -> 1968.00
10:54:49:362 -> 2105.00
10:54:49:373 -> 1924.00
10:54:49:395 -> 2130.00
10:54:49:396 -> 1924.00
10:54:49:404 -> 2101.00
10:54:49:414 -> 1884.00
10:54:49:424 -> 2099.00
10:54:49:435 -> 1862.00
10:54:49:445 -> 2065.00
10:54:49:455 -> 1989.00
10:54:49:487 -> 2058.00
10:54:49:495 -> 1970.00
10:54:49:495 -> 2063.00
10:54:49:496 -> 1994.00
10:54:49:507 -> 2060.00
10:54:49:517 -> 1971.00
10:54:49:527 -> 2028.00
10:54:49:538 -> 2035.00
10:54:49:548 -> 1978.00
10:54:49:558 -> 2091.00
10:54:49:569 -> 1966.00
10:54:49:579 -> 2085.00
10:54:49:595 -> 1986.00
10:54:49:600 -> 2088.00
10:54:49:610 -> 1938.00
10:54:49:620 -> 2100.00
10:54:49:631 -> 1953.00
10:54:49:641 -> 2107.00
10:54:49:651 -> 1950.00
10:54:49:662 -> 2105.00
10:54:49:672 -> 1912.00
10:54:49:683 -> 2048.00
10:54:49:693 -> 1975.00
10:54:49:703 -> 2116.00
10:54:49:713 -> 1931.00
10:54:49:724 -> 2109.00
10:54:49:734 -> 1883.00
10:54:49:744 -> 2112.00
10:54:49:754 -> 1917.00
10:54:49:765 -> 2073.00
10:54:49:775 -> 1980.00
10:54:49:786 -> 2074.00
10:54:49:796 -> 1974.00
10:54:49:806 -> 2062.00
10:54:49:816 -> 2009.00
10:54:49:827 -> 1980.00
10:54:49:837 -> 2030.00
10:54:49:847 -> 1995.00
10:54:49:858 -> 2060.00
10:54:49:868 -> 1987.00
10:54:49:878 -> 2095.00
10:54:49:888 -> 1968.00
10:54:49:910 -> 2108.00
10:54:49:911 -> 1953.00
10:54:49:919 -> 2107.00
10:54:49:930 -> 1949.00
10:54:49:944 -> 2100.00
10:54:49:950 -> 1963.00
10:54:49:961 -> 2092.00
10:54:49:971 -> 1956.00
10:54:49:981 -> 2094.00
10:54:49:992 -> 1946.00
10:54:50:002 -> 2124.00
10:54:50:012 -> 1929.00
10:54:50:022 -> 2107.00
10:54:50:033 -> 1955.00
10:54:50:043 -> 2106.00
10:54:50:054 -> 1939.00
10:54:50:064 -> 2109.00
10:54:50:074 -> 1901.00
10:54:50:084 -> 2056.00
10:54:50:095 -> 1922.00
10:54:50:105 -> 2075.00
10:54:50:117 -> 1987.00
10:54:50:126 -> 2047.00
10:54:50:136 -> 1956.00
10:54:50:146 -> 2039.00
10:54:50:157 -> 2027.00
10:54:50:167 -> 2001.00
10:54:50:177 -> 2043.00
10:54:50:188 -> 1965.00
10:54:50:198 -> 2070.00
10:54:50:209 -> 1972.00
10:54:50:219 -> 2101.00
10:54:50:229 -> 1962.00
10:54:50:239 -> 2118.00
10:54:50:250 -> 1944.00
10:54:50:260 -> 2132.00
10:54:50:270 -> 1955.00
10:54:50:281 -> 2100.00
10:54:50:291 -> 1950.00
10:54:50:301 -> 2185.00
10:54:50:312 -> 1949.00
10:54:50:322 -> 2103.00
10:54:50:332 -> 1966.00
10:54:50:343 -> 2115.00
10:54:50:353 -> 2027.00
10:54:50:363 -> 2145.00
10:54:50:374 -> 1846.00
10:54:50:385 -> 2069.00
10:54:50:395 -> 1941.00
10:54:50:405 -> 2063.00
10:54:50:435 -> 2016.00
10:54:50:436 -> 2020.00
10:54:50:436 -> 1935.00
10:54:50:446 -> 2112.00
10:54:50:477 -> 2017.00
10:54:50:477 -> 1980.00
10:54:50:478 -> 2069.00
10:54:50:488 -> 2004.00
10:54:50:500 -> 2169.00
10:54:50:508 -> 1932.00
10:54:50:518 -> 1987.00
10:54:50:529 -> 1991.00
10:54:50:539 -> 2115.00
10:54:50:549 -> 2010.00
10:54:50:560 -> 2156.00
10:54:50:570 -> 1985.00
10:54:50:582 -> 2076.00
10:54:50:590 -> 1942.00
10:54:50:611 -> 1913.00
10:54:50:601 -> 2097.00
10:54:50:622 -> 2091.00
10:54:50:633 -> 1975.00
10:54:50:642 -> 2049.00
10:54:50:652 -> 1910.00
10:54:50:663 -> 2134.00
10:54:50:673 -> 1918.00
10:54:50:683 -> 2108.00
10:54:50:693 -> 1873.00
10:54:50:704 -> 2041.00
10:54:50:714 -> 1869.00
10:54:50:724 -> 2113.00
10:54:50:735 -> 1948.00
10:54:50:745 -> 2040.00
10:54:50:755 -> 1997.00
10:54:50:771 -> 2038.00
10:54:50:776 -> 2052.00
10:54:50:786 -> 2094.00
10:54:50:797 -> 2018.00
10:54:50:807 -> 2084.00
10:54:50:818 -> 2006.00
10:54:50:828 -> 1973.00
10:54:50:838 -> 2097.00
10:54:50:848 -> 1936.00
10:54:50:859 -> 2118.00
10:54:50:870 -> 1956.00
10:54:50:880 -> 2090.00
10:54:50:890 -> 1944.00
10:54:50:900 -> 2088.00
10:54:50:911 -> 1891.00
10:54:50:925 -> 2144.00
10:54:50:931 -> 1999.00
10:54:50:955 -> 2168.00
10:54:50:955 -> 1969.00
10:54:50:962 -> 2086.00
10:54:50:972 -> 1891.00
10:54:50:983 -> 2137.00
10:54:50:993 -> 1900.00
10:54:51:003 -> 2113.00
10:54:51:014 -> 1896.00
10:54:51:024 -> 2075.00
10:54:51:034 -> 1979.00
10:54:51:045 -> 2032.00
10:54:51:055 -> 1983.00
10:54:51:065 -> 2056.00
10:54:51:076 -> 2054.00
10:54:51:086 -> 1993.00
10:54:51:096 -> 2076.00
10:54:51:107 -> 1949.00
10:54:51:117 -> 2076.00
10:54:51:127 -> 1999.00
10:54:51:138 -> 2097.00
10:54:51:148 -> 2008.00
10:54:51:158 -> 2078.00
10:54:51:168 -> 1958.00
10:54:51:179 -> 2110.00
10:54:51:189 -> 1972.00
10:54:51:200 -> 2060.00
10:54:51:210 -> 1976.00
10:54:51:220 -> 2141.00
10:54:51:231 -> 1958.00
10:54:51:241 -> 2108.00
10:54:51:251 -> 1888.00
10:54:51:261 -> 2101.00
10:54:51:272 -> 1933.00
10:54:51:282 -> 2137.00
10:54:51:292 -> 1943.00
10:54:51:303 -> 2112.00
10:54:51:313 -> 1825.00
10:54:51:323 -> 2124.00
10:54:51:333 -> 1884.00
10:54:51:344 -> 2098.00
10:54:51:354 -> 1955.00
10:54:51:365 -> 2074.00
10:54:51:375 -> 2001.00
10:54:51:385 -> 2050.00
10:54:51:396 -> 1966.00
10:54:51:406 -> 2040.00
10:54:51:416 -> 2046.00
10:54:51:427 -> 2011.00
10:54:51:437 -> 2064.00
10:54:51:448 -> 1964.00
10:54:51:473 -> 2052.00
10:54:51:475 -> 1971.00
10:54:51:478 -> 2070.00
10:54:51:488 -> 1959.00
10:54:51:498 -> 2072.00
10:54:51:509 -> 1948.00
10:54:51:519 -> 2078.00
10:54:51:529 -> 1933.00
10:54:51:540 -> 2119.00
10:54:51:550 -> 1990.00
10:54:51:586 -> 2088.00
10:54:51:588 -> 1908.00
10:54:51:588 -> 2100.00
10:54:51:591 -> 1968.00
10:54:51:601 -> 2107.00
10:54:51:612 -> 1949.00
10:54:51:628 -> 2129.00
10:54:51:632 -> 1932.00
10:54:51:642 -> 2082.00
10:54:51:653 -> 1867.00
10:54:51:663 -> 2071.00
10:54:51:674 -> 1954.00
10:54:51:684 -> 2043.00
10:54:51:694 -> 1938.00
10:54:51:705 -> 2027.00
10:54:51:715 -> 2020.00
10:54:51:725 -> 2058.00
10:54:51:736 -> 2036.00
10:54:51:746 -> 1974.00
10:54:51:756 -> 2061.00
10:54:51:767 -> 2008.00
10:54:51:777 -> 2061.00
10:54:51:787 -> 1995.00
10:54:51:798 -> 2078.00
10:54:51:808 -> 1962.00
10:54:51:819 -> 2121.00
10:54:51:829 -> 1938.00
10:54:51:839 -> 2137.00
10:54:51:850 -> 1957.00
10:54:51:860 -> 2117.00
10:54:51:871 -> 1897.00
10:54:51:881 -> 2127.00
10:54:51:891 -> 1954.00
10:54:51:901 -> 2106.00
10:54:51:911 -> 1952.00
10:54:51:923 -> 2131.00
10:54:51:933 -> 1921.00
10:54:51:944 -> 2073.00
10:54:51:954 -> 1938.00
10:54:51:964 -> 2010.00
10:54:51:996 -> 2004.00
10:54:51:998 -> 2043.00
10:54:51:998 -> 2038.00
10:54:52:005 -> 2008.00
10:54:52:016 -> 2033.00
10:54:52:026 -> 1995.00
10:54:52:036 -> 2050.00
10:54:52:046 -> 1986.00
10:54:52:057 -> 2062.00
10:54:52:067 -> 2013.00
10:54:52:078 -> 2078.00
10:54:52:088 -> 1928.00
10:54:52:098 -> 2076.00
10:54:52:108 -> 1962.00
10:54:52:119 -> 2067.00
10:54:52:129 -> 1954.00
10:54:52:139 -> 2135.00
10:54:52:150 -> 1935.00
10:54:52:160 -> 2066.00
10:54:52:171 -> 1938.00
10:54:52:181 -> 2107.00
10:54:52:196 -> 1916.00
10:54:52:201 -> 2100.00
10:54:52:212 -> 1943.00
10:54:52:223 -> 2084.00
10:54:52:232 -> 1888.00
10:54:52:243 -> 2061.00
10:54:52:253 -> 1925.00
10:54:52:263 -> 2076.00
10:54:52:274 -> 1945.00
10:54:52:284 -> 2075.00
10:54:52:296 -> 1973.00
10:54:52:306 -> 1996.00
10:54:52:316 -> 2060.00
10:54:52:328 -> 1996.00
10:54:52:337 -> 2091.00
10:54:52:347 -> 1994.00
10:54:52:357 -> 2075.00
10:54:52:368 -> 1947.00
10:54:52:378 -> 2078.00
10:54:52:388 -> 1955.00
10:54:52:399 -> 2095.00
10:54:52:409 -> 1944.00
10:54:52:419 -> 2115.00
10:54:52:430 -> 1939.00
10:54:52:444 -> 2105.00
10:54:52:450 -> 1926.00
10:54:52:461 -> 2117.00
10:54:52:471 -> 1870.00
10:54:52:481 -> 2109.00
10:54:52:491 -> 1957.00
10:54:52:518 -> 2077.00
10:54:52:519 -> 1954.00
10:54:52:522 -> 2102.00
