11:04:58:912 -> 2082.00
11:04:58:924 -> 1979.00
11:04:58:934 -> 2049.00
11:04:58:944 -> 1966.00
11:04:58:960 -> 2085.00
11:04:58:965 -> 1986.00
11:04:58:975 -> 2071.00
11:04:58:987 -> 1990.00
11:04:58:997 -> 2087.00
11:04:59:010 -> 1910.00
11:04:59:018 -> 2046.00
11:04:59:028 -> 1976.00
11:04:59:039 -> 2030.00
11:04:59:049 -> 1988.00
11:04:59:060 -> 2042.00
11:04:59:070 -> 2030.00
11:04:59:081 -> 1994.00
11:04:59:091 -> 2057.00
11:04:59:101 -> 2005.00
11:04:59:111 -> 2033.00
11:04:59:122 -> 1992.00
11:04:59:132 -> 2090.00
11:04:59:142 -> 1968.00
11:04:59:153 -> 2077.00
11:04:59:163 -> 1957.00
11:04:59:174 -> 2096.00
11:04:59:184 -> 1968.00
11:04:59:194 -> 2078.00
11:04:59:205 -> 1968.00
11:04:59:215 -> 2109.00
11:04:59:225 -> 1977.00
11:04:59:236 -> 2097.00
11:04:59:246 -> 1969.00
11:04:59:256 -> 2085.00
11:04:59:267 -> 1955.00
11:04:59:277 -> 2099.00
11:04:59:287 -> 2083.00
11:04:59:298 -> 2054.00
11:04:59:308 -> 1920.00
11:04:59:319 -> 2048.00
11:04:59:352 -> 1972.00
11:04:59:352 -> 2066.00
11:04:59:352 -> 2001.00
11:04:59:360 -> 2054.00
11:04:59:371 -> 2012.00
11:04:59:380 -> 1996.00
11:04:59:391 -> 2045.00
11:04:59:401 -> 2046.00
11:04:59:411 -> 2005.00
11:04:59:421 -> 2029.00
11:04:59:431 -> 2029.00
11:04:59:442 -> 1999.00
11:04:59:452 -> 2058.00
11:04:59:476 -> 1974.00
11:04:59:477 -> 2024.00
11:04:59:483 -> 1969.00
11:04:59:493 -> 2072.00
11:04:59:504 -> 1982.00
11:04:59:514 -> 2080.00
11:04:59:524 -> 1949.00
11:04:59:538 -> 2100.00
11:04:59:545 -> 1996.00
11:04:59:555 -> 2083.00
11:04:59:566 -> 1990.00
11:04:59:576 -> 2082.00
11:04:59:586 -> 1945.00
11:04:59:597 -> 2084.00
11:04:59:607 -> 1949.00
11:04:59:617 -> 2096.00
11:04:59:628 -> 1930.00
11:04:59:638 -> 2063.00
11:04:59:648 -> 1990.00
11:04:59:659 -> 2023.00
11:04:59:669 -> 1994.00
11:04:59:679 -> 2041.00
11:04:59:690 -> 1981.00
11:04:59:700 -> 2015.00
11:04:59:710 -> 2022.00
11:04:59:720 -> 2009.00
11:04:59:731 -> 2030.00
11:04:59:741 -> 2023.00
11:04:59:752 -> 2005.00
11:04:59:762 -> 1996.00
11:04:59:772 -> 2070.00
11:04:59:783 -> 1975.00
11:04:59:793 -> 2046.00
11:04:59:803 -> 1982.00
11:04:59:814 -> 2060.00
11:04:59:824 -> 1993.00
11:04:59:834 -> 2068.00
11:04:59:845 -> 1988.00
11:04:59:855 -> 2115.00
11:04:59:865 -> 2000.00
11:04:59:876 -> 2099.00
11:04:59:886 -> 1965.00
11:04:59:896 -> 2092.00
11:04:59:907 -> 1952.00
11:04:59:917 -> 2084.00
11:04:59:927 -> 1927.00
11:04:59:939 -> 2062.00
11:04:59:949 -> 1993.00
11:04:59:959 -> 2053.00
11:04:59:970 -> 2017.00
11:04:59:995 -> 2010.00
11:04:59:996 -> 2023.00
11:05:00:000 -> 2014.00
11:05:00:011 -> 2057.00
11:05:00:021 -> 2030.00
11:05:00:037 -> 2057.00
11:05:00:042 -> 2006.00
11:05:00:052 -> 2008.00
11:05:00:062 -> 1983.00
11:05:00:073 -> 2059.00
11:05:00:083 -> 2000.00
11:05:00:093 -> 2015.00
11:05:00:103 -> 1990.00
11:05:00:114 -> 2049.00
11:05:00:124 -> 1990.00
11:05:00:134 -> 2096.00
11:05:00:144 -> 1987.00
11:05:00:155 -> 2112.00
11:05:00:165 -> 1986.00
11:05:00:176 -> 2096.00
11:05:00:186 -> 1978.00
11:05:00:196 -> 2075.00
11:05:00:206 -> 1971.00
11:05:00:217 -> 2083.00
11:05:00:227 -> 1962.00
11:05:00:237 -> 2014.00
11:05:00:248 -> 1942.00
11:05:00:258 -> 2061.00
11:05:00:268 -> 1958.00
11:05:00:279 -> 2060.00
11:05:00:295 -> 1999.00
11:05:00:317 -> 2034.00
11:05:00:317 -> 1999.00
11:05:00:320 -> 2033.00
11:05:00:336 -> 2037.00
11:05:00:340 -> 2010.00
11:05:00:351 -> 2048.00
11:05:00:361 -> 2013.00
11:05:00:371 -> 2033.00
11:05:00:382 -> 1994.00
11:05:00:392 -> 2058.00
11:05:00:402 -> 2009.00
11:05:00:412 -> 2041.00
11:05:00:423 -> 1958.00
11:05:00:433 -> 2056.00
11:05:00:444 -> 1975.00
11:05:00:454 -> 2087.00
11:05:00:468 -> 1999.00
11:05:00:475 -> 2101.00
11:05:00:485 -> 1987.00
11:05:00:511 -> 2068.00
11:05:00:512 -> 1950.00
11:05:00:516 -> 2069.00
11:05:00:526 -> 1971.00
11:05:00:537 -> 2083.00
11:05:00:547 -> 1973.00
11:05:00:557 -> 2082.00
11:05:00:568 -> 1956.00
11:05:00:578 -> 2030.00
11:05:00:588 -> 1974.00
11:05:00:599 -> 2050.00
11:05:00:609 -> 2009.00
11:05:00:619 -> 2039.00
11:05:00:630 -> 1990.00
11:05:00:642 -> 2018.00
11:05:00:651 -> 2062.00
11:05:00:661 -> 2020.00
11:05:00:671 -> 2059.00
11:05:00:682 -> 1992.00
11:05:00:692 -> 2074.00
11:05:00:702 -> 1962.00
11:05:00:713 -> 2042.00
11:05:00:723 -> 1959.00
11:05:00:734 -> 2027.00
11:05:00:744 -> 1973.00
11:05:00:755 -> 2079.00
11:05:00:764 -> 1980.00
11:05:00:775 -> 2126.00
11:05:00:785 -> 1965.00
11:05:00:795 -> 2105.00
11:05:00:806 -> 1978.00
11:05:00:816 -> 2106.00
11:05:00:826 -> 1966.00
11:05:00:837 -> 2079.00
11:05:00:847 -> 1862.00
11:05:00:868 -> 1939.00
11:05:00:857 -> 2088.00
11:05:00:878 -> 2071.00
11:05:00:888 -> 2001.00
11:05:00:899 -> 2040.00
11:05:00:909 -> 1991.00
11:05:00:919 -> 2056.00
11:05:00:930 -> 2007.00
11:05:00:940 -> 2030.00
11:05:00:950 -> 2029.00
11:05:00:960 -> 2028.00
11:05:00:971 -> 2050.00
11:05:00:981 -> 2036.00
11:05:00:991 -> 2068.00
11:05:01:001 -> 2010.00
11:05:01:026 -> 2065.00
11:05:01:026 -> 1966.00
11:05:01:032 -> 2081.00
11:05:01:043 -> 1936.00
11:05:01:053 -> 2077.00
11:05:01:063 -> 1958.00
11:05:01:074 -> 2086.00
11:05:01:084 -> 1964.00
11:05:01:095 -> 2126.00
11:05:01:105 -> 1964.00
11:05:01:115 -> 2081.00
11:05:01:126 -> 1907.00
11:05:01:136 -> 2078.00
11:05:01:164 -> 1963.00
11:05:01:169 -> 2084.00
11:05:01:169 -> 1898.00
11:05:01:177 -> 2087.00
11:05:01:187 -> 1925.00
11:05:01:198 -> 2057.00
11:05:01:208 -> 1978.00
11:05:01:218 -> 2091.00
11:05:01:229 -> 1975.00
11:05:01:239 -> 2063.00
11:05:01:252 -> 2007.00
11:05:01:260 -> 2005.00
11:05:01:270 -> 2029.00
11:05:01:280 -> 2032.00
11:05:01:291 -> 2050.00
11:05:01:301 -> 2038.00
11:05:01:311 -> 2040.00
11:05:01:321 -> 1977.00
11:05:01:332 -> 2047.00
11:05:01:342 -> 1968.00
11:05:01:352 -> 2051.00
11:05:01:362 -> 1968.00
11:05:01:376 -> 2046.00
11:05:01:383 -> 1939.00
11:05:01:394 -> 2080.00
11:05:01:404 -> 1941.00
11:05:01:414 -> 2091.00
11:05:01:424 -> 1976.00
11:05:01:435 -> 2128.00
11:05:01:445 -> 1967.00
11:05:01:455 -> 2097.00
11:05:01:465 -> 1977.00
11:05:01:476 -> 2101.00
11:05:01:486 -> 1955.00
11:05:01:496 -> 2098.00
11:05:01:507 -> 2019.00
11:05:01:517 -> 2089.00
11:05:01:542 -> 1880.00
11:05:01:543 -> 2075.00
11:05:01:548 -> 1974.00
11:05:01:558 -> 2069.00
11:05:01:569 -> 1989.00
11:05:01:579 -> 2038.00
11:05:01:589 -> 1992.00
11:05:01:600 -> 2009.00
11:05:01:610 -> 2017.00
11:05:01:621 -> 2007.00
11:05:01:631 -> 2068.00
11:05:01:641 -> 2018.00
11:05:01:652 -> 2057.00
11:05:01:662 -> 1975.00
11:05:01:672 -> 2079.00
11:05:01:683 -> 1997.00
11:05:01:693 -> 2043.00
11:05:01:703 -> 1966.00
11:05:01:713 -> 2072.00
11:05:01:724 -> 1957.00
11:05:01:734 -> 2098.00
11:05:01:744 -> 1969.00
11:05:01:755 -> 2115.00
11:05:01:765 -> 1972.00
11:05:01:775 -> 2109.00
11:05:01:786 -> 1958.00
11:05:01:796 -> 2087.00
11:05:01:806 -> 1970.00
11:05:01:817 -> 2085.00
11:05:01:827 -> 1847.00
11:05:01:837 -> 2081.00
11:05:01:848 -> 1962.00
11:05:01:858 -> 2060.00
11:05:01:868 -> 1998.00
11:05:01:878 -> 2069.00
11:05:01:889 -> 2008.00
11:05:01:899 -> 2035.00
11:05:01:910 -> 2013.00
11:05:01:920 -> 2018.00
11:05:01:930 -> 2072.00
11:05:01:941 -> 1997.00
11:05:01:951 -> 2096.00
11:05:01:961 -> 1988.00
11:05:01:972 -> 2073.00
11:05:01:982 -> 1967.00
11:05:01:992 -> 2049.00
11:05:02:007 -> 1964.00
11:05:02:013 -> 2077.00
11:05:02:023 -> 1969.00
11:05:02:079 -> 2078.00
11:05:02:080 -> 1964.00
11:05:02:080 -> 2134.00
11:05:02:080 -> 1951.00
11:05:02:080 -> 2096.00
11:05:02:085 -> 1952.00
11:05:02:096 -> 2096.00
11:05:02:106 -> 1946.00
11:05:02:116 -> 2098.00
11:05:02:126 -> 2054.00
11:05:02:137 -> 2100.00
11:05:02:152 -> 1884.00
11:05:02:157 -> 2093.00
11:05:02:168 -> 1955.00
11:05:02:178 -> 2069.00
11:05:02:188 -> 2009.00
11:05:02:199 -> 2062.00
11:05:02:209 -> 2002.00
11:05:02:219 -> 2049.00
11:05:02:230 -> 2024.00
11:05:02:241 -> 1988.00
11:05:02:251 -> 2060.00
11:05:02:261 -> 2002.00
11:05:02:272 -> 2062.00
11:05:02:283 -> 1934.00
11:05:02:293 -> 2056.00
11:05:02:303 -> 1977.00
11:05:02:313 -> 2066.00
11:05:02:323 -> 1961.00
11:05:02:334 -> 2098.00
11:05:02:344 -> 1953.00
11:05:02:354 -> 2120.00
11:05:02:369 -> 1958.00
11:05:02:375 -> 2104.00
11:05:02:385 -> 1926.00
11:05:02:396 -> 2093.00
11:05:02:406 -> 1931.00
11:05:02:417 -> 2082.00
11:05:02:427 -> 1896.00
11:05:02:437 -> 2075.00
11:05:02:447 -> 1880.00
11:05:02:458 -> 2072.00
11:05:02:468 -> 1990.00
11:05:02:478 -> 2043.00
11:05:02:489 -> 1943.00
11:05:02:499 -> 2038.00
11:05:02:509 -> 2016.00
11:05:02:520 -> 2002.00
11:05:02:531 -> 2038.00
11:05:02:540 -> 1985.00
11:05:02:551 -> 2073.00
11:05:02:561 -> 2004.00
11:05:02:571 -> 2049.00
11:05:02:600 -> 2004.00
11:05:02:601 -> 2091.00
11:05:02:602 -> 1929.00
11:05:02:612 -> 2074.00
11:05:02:623 -> 1944.00
11:05:02:633 -> 2056.00
11:05:02:643 -> 1942.00
11:05:02:654 -> 2100.00
11:05:02:664 -> 1968.00
11:05:02:674 -> 2120.00
11:05:02:684 -> 1948.00
11:05:02:695 -> 2122.00
11:05:02:705 -> 1934.00
11:05:02:715 -> 2098.00
11:05:02:726 -> 1958.00
11:05:02:736 -> 2056.00
11:05:02:746 -> 1921.00
11:05:02:757 -> 2093.00
11:05:02:767 -> 1869.00
11:05:02:777 -> 2092.00
11:05:02:788 -> 1954.00
11:05:02:798 -> 2063.00
11:05:02:808 -> 2004.00
11:05:02:819 -> 2063.00
11:05:02:829 -> 1993.00
11:05:02:839 -> 2022.00
11:05:02:850 -> 2013.00
11:05:02:862 -> 2012.00
11:05:02:872 -> 2076.00
11:05:02:909 -> 1960.00
11:05:02:910 -> 2088.00
11:05:02:910 -> 1942.00
11:05:02:914 -> 2086.00
11:05:02:924 -> 1980.00
11:05:02:934 -> 2097.00
11:05:02:945 -> 1978.00
11:05:02:955 -> 2101.00
11:05:02:965 -> 1966.00
11:05:02:976 -> 2078.00
11:05:02:989 -> 1966.00
11:05:02:996 -> 2105.00
11:05:03:007 -> 1958.00
11:05:03:017 -> 2063.00
11:05:03:027 -> 1896.00
11:05:03:037 -> 2070.00
11:05:03:048 -> 1967.00
11:05:03:058 -> 2080.00
11:05:03:068 -> 2008.00
11:05:03:079 -> 2052.00
11:05:03:089 -> 2033.00
11:05:03:115 -> 2035.00
11:05:03:120 -> 2019.00
11:05:03:120 -> 2035.00
11:05:03:131 -> 2069.00
11:05:03:141 -> 2016.00
11:05:03:151 -> 2048.00
11:05:03:161 -> 1992.00
11:05:03:172 -> 2069.00
11:05:03:182 -> 1966.00
11:05:03:192 -> 2067.00
11:05:03:203 -> 1973.00
11:05:03:213 -> 2081.00
11:05:03:223 -> 1935.00
11:05:03:234 -> 2082.00
11:05:03:244 -> 1961.00
11:05:03:254 -> 2074.00
11:05:03:265 -> 1977.00
11:05:03:275 -> 2070.00
11:05:03:286 -> 1928.00
11:05:03:296 -> 2116.00
11:05:03:306 -> 1953.00
11:05:03:317 -> 2087.00
11:05:03:327 -> 1897.00
11:05:03:337 -> 2085.00
11:05:03:347 -> 1906.00
11:05:03:358 -> 2058.00
11:05:03:368 -> 1975.00
11:05:03:378 -> 2068.00
11:05:03:389 -> 2009.00
11:05:03:399 -> 2029.00
11:05:03:409 -> 2007.00
11:05:03:420 -> 1972.00
11:05:03:430 -> 2036.00
11:05:03:440 -> 2001.00
11:05:03:451 -> 2046.00
11:05:03:461 -> 2011.00
11:05:03:472 -> 2067.00
11:05:03:482 -> 1983.00
11:05:03:492 -> 2408.00
11:05:03:503 -> 1937.00
11:05:03:513 -> 2114.00
11:05:03:523 -> 1909.00
11:05:03:533 -> 2087.00
11:05:03:544 -> 1985.00
11:05:03:554 -> 2049.00
11:05:03:564 -> 1960.00
11:05:03:575 -> 2118.00
11:05:03:585 -> 1966.00
11:05:03:595 -> 2097.00
11:05:03:606 -> 1925.00
11:05:03:630 -> 2075.00
11:05:03:631 -> 1963.00
11:05:03:637 -> 2076.00
11:05:03:647 -> 1865.00
11:05:03:657 -> 2086.00
11:05:03:668 -> 1960.00
11:05:03:680 -> 2079.00
11:05:03:688 -> 1999.00
11:05:03:699 -> 2049.00
11:05:03:709 -> 1991.00
11:05:03:719 -> 2017.00
11:05:03:730 -> 2008.00
11:05:03:740 -> 2034.00
11:05:03:750 -> 2022.00
11:05:03:760 -> 2025.00
11:05:03:771 -> 2066.00
11:05:03:781 -> 1970.00
11:05:03:791 -> 2079.00
11:05:03:802 -> 1983.00
11:05:03:831 -> 2040.00
11:05:03:832 -> 1956.00
11:05:03:832 -> 2063.00
11:05:03:843 -> 1954.00
11:05:03:853 -> 2090.00
11:05:03:866 -> 1928.00
11:05:03:874 -> 2075.00
11:05:03:884 -> 1990.00
11:05:03:894 -> 2123.00
11:05:03:904 -> 1963.00
11:05:03:915 -> 2080.00
11:05:03:925 -> 1962.00
11:05:03:936 -> 2129.00
11:05:03:946 -> 1914.00
11:05:03:956 -> 2079.00
11:05:03:966 -> 1941.00
11:05:03:977 -> 2105.00
11:05:03:987 -> 1895.00
11:05:03:997 -> 2097.00
11:05:04:007 -> 1934.00
11:05:04:018 -> 2092.00
11:05:04:028 -> 1997.00
11:05:04:039 -> 2057.00
11:05:04:049 -> 2001.00
11:05:04:060 -> 2059.00
11:05:04:069 -> 1957.00
11:05:04:080 -> 1998.00
11:05:04:090 -> 2024.00
11:05:04:100 -> 2017.00
11:05:04:111 -> 2055.00
11:05:04:121 -> 2005.00
11:05:04:149 -> 2058.00
11:05:04:150 -> 1986.00
11:05:04:152 -> 2034.00
11:05:04:162 -> 1952.00
11:05:04:173 -> 2075.00
11:05:04:183 -> 1959.00
11:05:04:193 -> 2073.00
11:05:04:204 -> 1983.00
11:05:04:214 -> 2106.00
11:05:04:225 -> 1990.00
11:05:04:235 -> 2124.00
11:05:04:245 -> 1925.00
11:05:04:256 -> 2124.00
11:05:04:266 -> 1943.00
11:05:04:279 -> 2104.00
11:05:04:286 -> 2056.00
11:05:04:297 -> 2050.00
11:05:04:307 -> 1878.00
11:05:04:317 -> 2050.00
11:05:04:328 -> 1973.00
11:05:04:338 -> 2082.00
11:05:04:348 -> 2013.00
11:05:04:359 -> 2005.00
11:05:04:369 -> 1996.00
11:05:04:379 -> 1999.00
11:05:04:390 -> 2023.00
11:05:04:400 -> 2013.00
11:05:04:410 -> 2010.00
11:05:04:421 -> 2003.00
11:05:04:431 -> 2084.00
11:05:04:441 -> 1991.00
11:05:04:451 -> 2029.00
11:05:04:462 -> 1991.00
11:05:04:472 -> 2094.00
11:05:04:482 -> 1966.00
11:05:04:493 -> 2086.00
11:05:04:503 -> 1949.00
11:05:04:513 -> 2066.00
11:05:04:524 -> 1949.00
11:05:04:534 -> 2118.00
11:05:04:544 -> 1966.00
11:05:04:559 -> 2149.00
11:05:04:565 -> 1941.00
11:05:04:575 -> 2120.00
11:05:04:586 -> 1931.00
11:05:04:596 -> 2076.00
11:05:04:606 -> 1878.00
11:05:04:617 -> 2108.00
11:05:04:665 -> 1873.00
11:05:04:667 -> 2082.00
11:05:04:667 -> 1957.00
11:05:04:667 -> 2075.00
11:05:04:668 -> 1989.00
11:05:04:678 -> 2070.00
11:05:04:689 -> 1992.00
11:05:04:699 -> 2076.00
11:05:04:709 -> 2027.00
11:05:04:719 -> 2036.00
11:05:04:730 -> 2000.00
11:05:04:740 -> 2008.00
11:05:04:751 -> 2049.00
11:05:04:761 -> 1994.00
11:05:04:771 -> 2054.00
11:05:04:782 -> 1987.00
11:05:04:792 -> 2052.00
11:05:04:802 -> 1924.00
11:05:04:813 -> 2065.00
11:05:04:823 -> 1945.00
11:05:04:833 -> 2099.00
11:05:04:844 -> 1942.00
11:05:04:854 -> 2079.00
11:05:04:864 -> 2002.00
11:05:04:874 -> 2105.00
11:05:04:885 -> 1974.00
11:05:04:895 -> 2080.00
11:05:04:906 -> 1934.00
11:05:04:916 -> 2111.00
11:05:04:926 -> 1928.00
11:05:04:936 -> 2095.00
11:05:04:947 -> 1876.00
11:05:04:959 -> 2084.00
11:05:04:967 -> 1955.00
11:05:04:977 -> 2085.00
11:05:04:988 -> 2020.00
11:05:04:998 -> 2067.00
11:05:05:008 -> 2002.00
11:05:05:019 -> 2047.00
11:05:05:029 -> 2034.00
11:05:05:039 -> 2013.00
11:05:05:050 -> 2008.00
11:05:05:060 -> 2002.00
11:05:05:070 -> 2044.00
11:05:05:081 -> 2010.00
11:05:05:091 -> 2062.00
11:05:05:101 -> 1981.00
11:05:05:112 -> 2046.00
11:05:05:122 -> 1955.00
11:05:05:132 -> 2072.00
11:05:05:143 -> 1984.00
11:05:05:153 -> 2075.00
11:05:05:163 -> 1956.00
11:05:05:185 -> 2082.00
11:05:05:186 -> 1964.00
11:05:05:194 -> 2135.00
11:05:05:204 -> 1969.00
11:05:05:215 -> 2092.00
11:05:05:225 -> 1931.00
11:05:05:235 -> 2092.00
11:05:05:245 -> 1949.00
11:05:05:256 -> 2095.00
11:05:05:266 -> 1959.00
11:05:05:276 -> 2102.00
11:05:05:287 -> 1852.00
11:05:05:297 -> 2088.00
11:05:05:307 -> 1956.00
11:05:05:317 -> 2070.00
11:05:05:328 -> 1984.00
11:05:05:338 -> 2062.00
11:05:05:348 -> 2000.00
11:05:05:359 -> 2039.00
11:05:05:369 -> 2003.00
11:05:05:379 -> 2034.00
11:05:05:390 -> 2046.00
11:05:05:400 -> 2023.00
11:05:05:410 -> 2054.00
11:05:05:420 -> 1980.00
11:05:05:431 -> 2076.00
11:05:05:441 -> 1996.00
11:05:05:451 -> 2080.00
11:05:05:462 -> 1989.00
11:05:05:472 -> 2066.00
11:05:05:482 -> 1992.00
11:05:05:493 -> 2097.00
11:05:05:503 -> 1956.00
11:05:05:514 -> 2082.00
11:05:05:523 -> 1983.00
11:05:05:534 -> 2128.00
11:05:05:544 -> 1968.00
11:05:05:555 -> 2101.00
11:05:05:565 -> 1936.00
11:05:05:575 -> 2056.00
11:05:05:614 -> 1927.00
11:05:05:614 -> 2039.00
11:05:05:614 -> 2099.00
11:05:05:616 -> 2056.00
11:05:05:627 -> 1861.00
11:05:05:637 -> 2058.00
11:05:05:648 -> 1971.00
11:05:05:659 -> 2080.00
11:05:05:669 -> 2011.00
11:05:05:679 -> 2022.00
11:05:05:708 -> 2010.00
11:05:05:708 -> 1996.00
11:05:05:710 -> 2017.00
11:05:05:720 -> 1994.00
11:05:05:730 -> 2074.00
11:05:05:741 -> 2019.00
11:05:05:751 -> 2049.00
11:05:05:761 -> 1988.00
11:05:05:772 -> 2071.00
11:05:05:782 -> 1926.00
11:05:05:792 -> 2083.00
11:05:05:803 -> 1965.00
11:05:05:815 -> 2105.00
11:05:05:824 -> 1944.00
11:05:05:834 -> 2091.00
11:05:05:844 -> 1958.00
11:05:05:854 -> 2119.00
11:05:05:865 -> 1969.00
11:05:05:875 -> 2103.00
11:05:05:886 -> 1986.00
11:05:05:896 -> 2096.00
11:05:05:906 -> 2036.00
11:05:05:917 -> 2051.00
11:05:05:927 -> 1881.00
11:05:05:937 -> 2051.00
11:05:05:947 -> 1980.00
11:05:05:957 -> 2056.00
11:05:05:968 -> 2025.00
11:05:05:978 -> 2004.00
11:05:05:989 -> 1999.00
11:05:05:999 -> 2006.00
11:05:06:009 -> 2008.00
11:05:06:020 -> 2010.00
11:05:06:030 -> 2018.00
11:05:06:040 -> 2008.00
11:05:06:050 -> 2079.00
11:05:06:061 -> 1965.00
11:05:06:071 -> 2078.00
11:05:06:082 -> 1955.00
11:05:06:093 -> 2092.00
11:05:06:102 -> 1943.00
11:05:06:112 -> 2082.00
11:05:06:123 -> 1961.00
11:05:06:133 -> 2086.00
11:05:06:144 -> 1971.00
11:05:06:154 -> 2103.00
11:05:06:164 -> 1985.00
11:05:06:174 -> 2127.00
11:05:06:185 -> 1958.00
11:05:06:195 -> 2090.00
11:05:06:205 -> 1927.00
11:05:06:233 -> 2122.00
11:05:06:234 -> 2016.00
11:05:06:236 -> 2062.00
11:05:06:247 -> 1868.00
11:05:06:257 -> 2053.00
11:05:06:267 -> 1951.00
11:05:06:278 -> 2061.00
11:05:06:288 -> 2011.00
11:05:06:298 -> 2042.00
11:05:06:308 -> 2007.00
11:05:06:319 -> 2014.00
11:05:06:329 -> 2029.00
11:05:06:339 -> 1997.00
11:05:06:350 -> 2014.00
11:05:06:360 -> 1964.00
11:05:06:375 -> 2094.00
11:05:06:381 -> 1985.00
11:05:06:412 -> 2074.00
11:05:06:412 -> 1985.00
11:05:06:412 -> 2065.00
11:05:06:422 -> 1967.00
11:05:06:432 -> 2075.00
11:05:06:442 -> 1960.00
11:05:06:453 -> 2072.00
11:05:06:463 -> 1975.00
11:05:06:473 -> 2089.00
11:05:06:484 -> 1987.00
11:05:06:494 -> 2122.00
11:05:06:504 -> 1983.00
11:05:06:515 -> 2078.00
11:05:06:525 -> 1956.00
11:05:06:535 -> 2096.00
11:05:06:545 -> 1906.00
11:05:06:556 -> 2100.00
11:05:06:566 -> 1920.00
11:05:06:577 -> 2037.00
11:05:06:587 -> 1936.00
11:05:06:597 -> 2059.00
11:05:06:608 -> 2002.00
11:05:06:618 -> 2071.00
11:05:06:628 -> 2002.00
11:05:06:639 -> 2025.00
11:05:06:649 -> 2007.00
11:05:06:659 -> 1986.00
11:05:06:669 -> 2045.00
11:05:06:680 -> 2028.00
11:05:06:690 -> 2051.00
11:05:06:701 -> 1998.00
11:05:06:711 -> 2093.00
11:05:06:721 -> 2002.00
11:05:06:731 -> 2081.00
11:05:06:751 -> 1949.00
11:05:06:752 -> 2068.00
11:05:06:762 -> 1913.00
11:05:06:773 -> 2130.00
11:05:06:783 -> 1929.00
11:05:06:793 -> 2070.00
11:05:06:804 -> 1933.00
11:05:06:814 -> 2079.00
11:05:06:824 -> 1937.00
11:05:06:835 -> 2122.00
11:05:06:845 -> 1934.00
11:05:06:855 -> 2115.00
11:05:06:866 -> 1959.00
11:05:06:876 -> 2022.00
11:05:06:887 -> 1987.00
11:05:06:897 -> 2066.00
11:05:06:908 -> 1948.00
11:05:06:918 -> 2026.00
11:05:06:928 -> 2041.00
11:05:06:938 -> 2004.00
11:05:06:949 -> 2058.00
11:05:06:959 -> 1968.00
11:05:06:969 -> 2084.00
11:05:06:980 -> 2006.00
11:05:06:994 -> 2055.00
11:05:07:000 -> 1978.00
11:05:07:011 -> 2095.00
11:05:07:021 -> 1964.00
11:05:07:031 -> 2087.00
11:05:07:042 -> 1968.00
11:05:07:052 -> 2078.00
11:05:07:062 -> 1972.00
11:05:07:073 -> 2093.00
11:05:07:083 -> 1954.00
11:05:07:093 -> 2084.00
11:05:07:103 -> 1969.00
11:05:07:114 -> 2067.00
11:05:07:124 -> 1996.00
11:05:07:134 -> 2108.00
11:05:07:145 -> 1932.00
11:05:07:155 -> 2130.00
11:05:07:165 -> 1949.00
11:05:07:175 -> 2091.00
11:05:07:188 -> 1947.00
11:05:07:216 -> 2052.00
11:05:07:216 -> 1885.00
11:05:07:217 -> 2079.00
11:05:07:227 -> 1925.00
11:05:07:237 -> 2063.00
11:05:07:248 -> 1999.00
11:05:07:264 -> 2058.00
11:05:07:268 -> 1988.00
11:05:07:279 -> 2011.00
11:05:07:289 -> 2021.00
11:05:07:299 -> 1963.00
11:05:07:310 -> 2056.00
11:05:07:320 -> 1980.00
11:05:07:335 -> 2081.00
11:05:07:341 -> 1987.00
11:05:07:351 -> 2066.00
11:05:07:361 -> 1943.00
11:05:07:372 -> 2418.00
11:05:07:382 -> 1938.00
11:05:07:392 -> 2065.00
11:05:07:402 -> 1965.00
11:05:07:413 -> 2108.00
11:05:07:423 -> 1967.00
11:05:07:434 -> 2073.00
11:05:07:444 -> 1960.00
11:05:07:454 -> 2096.00
11:05:07:465 -> 1967.00
11:05:07:475 -> 2073.00
11:05:07:485 -> 1944.00
11:05:07:496 -> 2092.00
11:05:07:506 -> 1884.00
11:05:07:516 -> 2080.00
11:05:07:526 -> 1925.00
11:05:07:537 -> 2060.00
11:05:07:547 -> 1913.00
11:05:07:557 -> 2068.00
11:05:07:567 -> 1991.00
11:05:07:578 -> 2026.00
11:05:07:588 -> 2013.00
11:05:07:598 -> 2036.00
11:05:07:609 -> 2004.00
11:05:07:619 -> 2007.00
11:05:07:630 -> 2044.00
11:05:07:640 -> 1995.00
11:05:07:654 -> 2068.00
11:05:07:660 -> 1979.00
11:05:07:671 -> 2086.00
11:05:07:681 -> 1989.00
11:05:07:691 -> 2051.00
11:05:07:702 -> 1966.00
11:05:07:712 -> 2073.00
11:05:07:722 -> 1938.00
11:05:07:733 -> 2076.00
11:05:07:743 -> 1953.00
11:05:07:753 -> 2106.00
11:05:07:764 -> 1950.00
11:05:07:780 -> 2088.00
11:05:07:784 -> 1958.00
11:05:07:795 -> 2122.00
11:05:07:806 -> 1969.00
11:05:07:816 -> 2085.00
11:05:07:826 -> 1885.00
11:05:07:837 -> 2045.00
11:05:07:850 -> 2005.00
11:05:07:858 -> 2043.00
11:05:07:868 -> 2005.00
11:05:07:879 -> 2017.00
11:05:07:889 -> 2020.00
11:05:07:899 -> 1992.00
11:05:07:909 -> 2050.00
11:05:07:920 -> 1985.00
11:05:07:930 -> 2088.00
11:05:07:940 -> 1992.00
11:05:07:954 -> 2067.00
11:05:07:980 -> 1985.00
11:05:07:980 -> 2082.00
11:05:07:981 -> 1983.00
11:05:07:992 -> 2068.00
11:05:08:002 -> 1986.00
11:05:08:013 -> 2099.00
11:05:08:023 -> 1924.00
11:05:08:033 -> 2088.00
11:05:08:044 -> 1953.00
11:05:08:054 -> 2095.00
11:05:08:066 -> 1965.00
11:05:08:074 -> 2113.00
11:05:08:085 -> 1941.00
11:05:08:095 -> 2103.00
11:05:08:105 -> 1934.00
11:05:08:116 -> 2101.00
11:05:08:126 -> 1954.00
11:05:08:136 -> 2078.00
11:05:08:147 -> 1887.00
11:05:08:157 -> 2087.00
11:05:08:168 -> 1977.00
11:05:08:178 -> 2038.00
11:05:08:188 -> 2009.00
11:05:08:199 -> 2047.00
11:05:08:209 -> 2040.00
11:05:08:219 -> 2014.00
11:05:08:230 -> 2055.00
11:05:08:240 -> 2017.00
11:05:08:250 -> 2074.00
11:05:08:261 -> 2003.00
11:05:08:271 -> 2075.00
11:05:08:298 -> 1983.00
11:05:08:299 -> 2039.00
11:05:08:302 -> 1948.00
11:05:08:312 -> 2075.00
11:05:08:323 -> 1918.00
11:05:08:333 -> 2097.00
11:05:08:343 -> 1933.00
11:05:08:354 -> 2117.00
11:05:08:364 -> 1926.00
11:05:08:374 -> 2121.00
11:05:08:385 -> 1949.00
11:05:08:395 -> 2082.00
11:05:08:405 -> 1954.00
11:05:08:416 -> 2124.00
11:05:08:426 -> 2039.00
11:05:08:436 -> 2071.00
11:05:08:447 -> 1851.00
11:05:08:457 -> 2100.00
11:05:08:467 -> 1906.00
11:05:08:477 -> 2112.00
11:05:08:487 -> 1998.00
11:05:08:498 -> 2059.00
11:05:08:508 -> 2008.00
11:05:08:519 -> 2015.00
11:05:08:529 -> 2020.00
11:05:08:539 -> 2001.00
11:05:08:550 -> 2015.00
11:05:08:560 -> 2024.00
11:05:08:570 -> 2062.00
11:05:08:581 -> 1965.00
11:05:08:591 -> 2065.00
11:05:08:601 -> 1996.00
11:05:08:611 -> 2067.00
11:05:08:622 -> 1967.00
11:05:08:632 -> 2061.00
11:05:08:643 -> 1955.00
11:05:08:653 -> 2099.00
11:05:08:663 -> 1942.00
11:05:08:674 -> 2085.00
11:05:08:684 -> 1935.00
11:05:08:694 -> 2117.00
11:05:08:705 -> 1970.00
11:05:08:715 -> 2109.00
11:05:08:725 -> 1933.00
11:05:08:735 -> 2149.00
11:05:08:746 -> 1887.00
11:05:08:756 -> 2084.00
11:05:08:766 -> 1860.00
11:05:08:777 -> 2069.00
11:05:08:787 -> 1890.00
11:05:08:840 -> 2104.00
11:05:08:840 -> 1979.00
11:05:08:840 -> 2046.00
11:05:08:840 -> 1995.00
11:05:08:840 -> 2049.00
11:05:08:849 -> 1990.00
11:05:08:860 -> 2044.00
11:05:08:870 -> 2044.00
11:05:08:880 -> 1988.00
11:05:08:891 -> 2055.00
11:05:08:901 -> 1976.00
11:05:08:911 -> 2075.00
11:05:08:922 -> 1958.00
11:05:08:932 -> 2072.00
11:05:08:942 -> 1953.00
11:05:08:953 -> 2068.00
11:05:08:963 -> 1938.00
11:05:08:974 -> 2077.00
11:05:08:984 -> 1969.00
11:05:08:994 -> 2104.00
11:05:09:005 -> 1950.00
11:05:09:015 -> 2122.00
11:05:09:025 -> 1956.00
11:05:09:036 -> 2142.00
11:05:09:046 -> 2050.00
11:05:09:056 -> 2095.00
11:05:09:066 -> 1837.00
11:05:09:077 -> 2086.00
11:05:09:087 -> 1969.00
11:05:09:098 -> 2095.00
11:05:09:108 -> 2000.00
11:05:09:119 -> 2022.00
11:05:09:129 -> 2006.00
11:05:09:139 -> 2041.00
11:05:09:149 -> 1974.00
11:05:09:165 -> 2007.00
11:05:09:171 -> 2054.00
11:05:09:181 -> 1963.00
11:05:09:201 -> 1979.00
11:05:09:191 -> 2089.00
11:05:09:212 -> 2052.00
11:05:09:222 -> 1939.00
11:05:09:232 -> 2049.00
11:05:09:243 -> 1973.00
11:05:09:257 -> 2082.00
11:05:09:263 -> 1941.00
11:05:09:274 -> 2134.00
11:05:09:284 -> 1945.00
11:05:09:294 -> 2111.00
11:05:09:305 -> 1942.00
11:05:09:315 -> 2063.00
11:05:09:325 -> 1955.00
11:05:09:336 -> 2082.00
11:05:09:354 -> 1905.00
11:05:09:356 -> 2048.00
11:05:09:367 -> 1898.00
11:05:09:377 -> 2084.00
11:05:09:387 -> 1963.00
11:05:09:397 -> 2077.00
11:05:09:408 -> 1988.00
11:05:09:419 -> 2034.00
11:05:09:429 -> 1991.00
11:05:09:439 -> 2035.00
11:05:09:449 -> 2035.00
11:05:09:460 -> 2003.00
11:05:09:470 -> 2053.00
11:05:09:480 -> 2008.00
11:05:09:491 -> 2049.00
11:05:09:501 -> 2002.00
11:05:09:511 -> 2062.00
11:05:09:522 -> 1987.00
11:05:09:532 -> 2072.00
11:05:09:542 -> 1970.00
11:05:09:552 -> 2067.00
11:05:09:566 -> 1935.00
11:05:09:573 -> 2052.00
11:05:09:584 -> 1987.00
11:05:09:594 -> 2086.00
11:05:09:605 -> 1961.00
11:05:09:615 -> 2111.00
11:05:09:655 -> 1939.00
11:05:09:656 -> 2104.00
11:05:09:656 -> 1963.00
11:05:09:656 -> 2128.00
11:05:09:667 -> 1945.00
11:05:09:676 -> 2103.00
11:05:09:687 -> 1905.00
11:05:09:697 -> 2050.00
11:05:09:707 -> 1961.00
11:05:09:718 -> 2077.00
11:05:09:728 -> 1998.00
11:05:09:739 -> 2045.00
11:05:09:749 -> 2015.00
11:05:09:759 -> 2016.00
11:05:09:770 -> 2012.00
11:05:09:780 -> 2004.00
11:05:09:790 -> 2069.00
11:05:09:801 -> 2009.00
11:05:09:811 -> 2085.00
11:05:09:824 -> 1987.00
11:05:09:831 -> 2079.00
11:05:09:842 -> 1941.00
11:05:09:852 -> 2055.00
11:05:09:876 -> 1952.00
11:05:09:877 -> 2128.00
11:05:09:883 -> 1915.00
11:05:09:893 -> 2106.00
11:05:09:907 -> 1943.00
11:05:09:914 -> 2105.00
11:05:09:924 -> 1925.00
11:05:09:935 -> 2167.00
11:05:09:945 -> 1936.00
11:05:09:955 -> 2111.00
11:05:09:966 -> 1933.00
11:05:09:976 -> 2100.00
11:05:09:986 -> 2000.00
11:05:09:996 -> 2071.00
11:05:10:007 -> 1854.00
11:05:10:017 -> 2070.00
11:05:10:027 -> 1941.00
11:05:10:037 -> 2091.00
11:05:10:048 -> 1993.00
11:05:10:058 -> 2061.00
11:05:10:068 -> 2001.00
11:05:10:079 -> 2029.00
11:05:10:089 -> 2032.00
11:05:10:099 -> 2024.00
11:05:10:110 -> 2047.00
11:05:10:120 -> 1981.00
11:05:10:130 -> 2065.00
11:05:10:141 -> 1990.00
11:05:10:151 -> 2088.00
11:05:10:161 -> 1997.00
11:05:10:172 -> 2042.00
11:05:10:182 -> 1970.00
11:05:10:192 -> 2076.00
11:05:10:203 -> 1903.00
11:05:10:213 -> 2044.00
11:05:10:223 -> 1981.00
11:05:10:234 -> 2099.00
11:05:10:244 -> 1958.00
11:05:10:255 -> 2120.00
11:05:10:265 -> 1950.00
11:05:10:275 -> 2116.00
11:05:10:285 -> 1954.00
11:05:10:296 -> 2133.00
11:05:10:306 -> 1957.00
11:05:10:316 -> 2135.00
11:05:10:326 -> 1934.00
11:05:10:337 -> 2090.00
11:05:10:347 -> 1868.00
11:05:10:357 -> 2096.00
11:05:10:368 -> 1949.00
11:05:10:396 -> 2049.00
11:05:10:397 -> 1980.00
11:05:10:398 -> 2071.00
11:05:10:409 -> 2002.00
11:05:10:419 -> 2043.00
11:05:10:429 -> 2013.00
11:05:10:439 -> 2019.00
11:05:10:450 -> 2012.00
11:05:10:460 -> 2025.00
11:05:10:470 -> 2042.00
11:05:10:481 -> 2016.00
11:05:10:491 -> 2085.00
11:05:10:501 -> 1984.00
11:05:10:512 -> 2054.00
11:05:10:546 -> 1943.00
11:05:10:547 -> 2093.00
11:05:10:547 -> 1935.00
11:05:10:553 -> 2047.00
11:05:10:563 -> 1963.00
11:05:10:573 -> 2108.00
11:05:10:583 -> 1934.00
11:05:10:594 -> 2121.00
11:05:10:604 -> 1959.00
11:05:10:614 -> 2117.00
11:05:10:625 -> 1960.00
11:05:10:637 -> 2112.00
11:05:10:645 -> 1934.00
11:05:10:656 -> 2119.00
11:05:10:666 -> 2046.00
11:05:10:676 -> 2094.00
11:05:10:687 -> 1855.00
11:05:10:697 -> 2074.00
11:05:10:707 -> 1937.00
11:05:10:718 -> 2082.00
11:05:10:728 -> 1989.00
11:05:10:738 -> 2049.00
11:05:10:748 -> 1999.00
11:05:10:759 -> 2015.00
11:05:10:769 -> 2027.00
11:05:10:779 -> 2020.00
11:05:10:790 -> 2032.00
11:05:10:800 -> 1999.00
11:05:10:810 -> 2057.00
11:05:10:821 -> 2006.00
11:05:10:831 -> 2090.00
11:05:10:841 -> 1998.00
11:05:10:852 -> 2034.00
11:05:10:862 -> 1984.00
11:05:10:872 -> 2088.00
11:05:10:882 -> 1945.00
11:05:10:893 -> 2099.00
11:05:10:913 -> 1940.00
11:05:10:914 -> 2119.00
11:05:10:924 -> 1948.00
11:05:10:934 -> 2124.00
11:05:10:944 -> 1946.00
11:05:10:955 -> 2135.00
11:05:10:965 -> 1930.00
11:05:10:975 -> 2121.00
11:05:10:986 -> 1941.00
11:05:10:996 -> 2077.00
11:05:11:006 -> 1924.00
11:05:11:018 -> 2102.00
11:05:11:027 -> 1947.00
11:05:11:038 -> 2075.00
11:05:11:048 -> 1964.00
11:05:11:058 -> 2052.00
11:05:11:069 -> 2025.00
11:05:11:079 -> 2042.00
11:05:11:090 -> 2000.00
11:05:11:100 -> 1991.00
11:05:11:110 -> 2040.00
11:05:11:121 -> 1962.00
11:05:11:131 -> 2095.00
11:05:11:141 -> 1960.00
11:05:11:151 -> 2100.00
11:05:11:162 -> 1951.00
11:05:11:172 -> 2090.00
11:05:11:182 -> 1935.00
11:05:11:193 -> 2108.00
11:05:11:203 -> 1923.00
11:05:11:213 -> 2025.00
11:05:11:224 -> 1945.00
11:05:11:234 -> 2154.00
11:05:11:244 -> 1943.00
11:05:11:255 -> 2135.00
11:05:11:265 -> 1916.00
11:05:11:276 -> 2139.00
11:05:11:286 -> 1937.00
11:05:11:296 -> 2117.00
11:05:11:306 -> 1867.00
11:05:11:317 -> 2104.00
11:05:11:327 -> 1863.00
11:05:11:337 -> 2081.00
11:05:11:347 -> 1997.00
11:05:11:384 -> 2053.00
11:05:11:389 -> 1989.00
11:05:11:389 -> 2062.00
11:05:11:389 -> 2005.00
11:05:11:400 -> 2030.00
11:05:11:409 -> 2001.00
11:05:11:438 -> 1994.00
11:05:11:439 -> 2073.00
11:05:11:440 -> 1994.00
11:05:11:451 -> 2067.00
11:05:11:461 -> 1996.00
11:05:11:471 -> 2102.00
11:05:11:482 -> 1927.00
11:05:11:492 -> 2103.00
11:05:11:502 -> 1938.00
11:05:11:512 -> 2131.00
11:05:11:523 -> 1931.00
11:05:11:533 -> 2128.00
11:05:11:543 -> 1940.00
11:05:11:554 -> 2150.00
11:05:11:564 -> 1949.00
11:05:11:575 -> 2154.00
11:05:11:585 -> 1902.00
11:05:11:598 -> 2138.00
11:05:11:606 -> 1923.00
11:05:11:616 -> 2082.00
11:05:11:626 -> 1873.00
11:05:11:637 -> 2073.00
11:05:11:647 -> 1930.00
11:05:11:657 -> 2082.00
11:05:11:668 -> 1952.00
11:05:11:678 -> 2050.00
11:05:11:689 -> 1983.00
11:05:11:699 -> 2020.00
11:05:11:714 -> 2022.00
11:05:11:720 -> 1989.00
11:05:11:730 -> 2056.00
11:05:11:741 -> 1990.00
11:05:11:751 -> 2097.00
11:05:11:761 -> 1988.00
11:05:11:772 -> 2079.00
11:05:11:782 -> 1919.00
11:05:11:793 -> 2116.00
11:05:11:803 -> 1928.00
11:05:11:813 -> 2145.00
11:05:11:824 -> 1922.00
11:05:11:834 -> 2160.00
11:05:11:844 -> 1943.00
11:05:11:855 -> 2140.00
11:05:11:865 -> 1948.00
11:05:11:875 -> 2147.00
11:05:11:886 -> 1944.00
11:05:11:896 -> 2093.00
11:05:11:906 -> 1885.00
11:05:11:917 -> 2062.00
11:05:11:932 -> 1933.00
11:05:11:952 -> 2099.00
11:05:11:953 -> 1997.00
11:05:11:958 -> 2030.00
11:05:11:969 -> 2034.00
11:05:11:979 -> 1994.00
11:05:11:990 -> 2046.00
11:05:12:000 -> 1963.00
11:05:12:010 -> 2037.00
11:05:12:021 -> 1995.00
11:05:12:031 -> 2104.00
11:05:12:044 -> 1939.00
11:05:12:052 -> 2106.00
11:05:12:062 -> 1926.00
11:05:12:072 -> 2115.00
11:05:12:082 -> 1910.00
11:05:12:093 -> 2086.00
11:05:12:103 -> 1909.00
11:05:12:113 -> 2129.00
11:05:12:124 -> 1928.00
11:05:12:134 -> 2146.00
11:05:12:155 -> 2141.00
11:05:12:144 -> 1935.00
11:05:12:165 -> 1901.00
11:05:12:198 -> 2146.00
11:05:12:199 -> 1906.00
11:05:12:199 -> 2113.00
11:05:12:206 -> 1883.00
11:05:12:216 -> 2103.00
11:05:12:227 -> 1888.00
11:05:12:240 -> 2066.00
11:05:12:247 -> 1951.00
11:05:12:257 -> 2080.00
11:05:12:268 -> 1978.00
11:05:12:279 -> 2043.00
11:05:12:290 -> 2042.00
11:05:12:300 -> 1987.00
11:05:12:310 -> 2085.00
11:05:12:321 -> 1970.00
11:05:12:331 -> 2094.00
11:05:12:341 -> 1944.00
11:05:12:352 -> 2091.00
11:05:12:362 -> 1920.00
11:05:12:372 -> 2120.00
11:05:12:383 -> 1918.00
11:05:12:393 -> 2134.00
11:05:12:403 -> 1915.00
11:05:12:414 -> 2144.00
11:05:12:424 -> 1945.00
11:05:12:434 -> 2134.00
11:05:12:445 -> 1913.00
11:05:12:471 -> 2133.00
11:05:12:473 -> 1938.00
11:05:12:476 -> 2112.00
11:05:12:486 -> 2005.00
11:05:12:496 -> 2110.00
11:05:12:507 -> 1891.00
11:05:12:517 -> 2079.00
11:05:12:527 -> 1923.00
11:05:12:538 -> 2059.00
11:05:12:548 -> 1996.00
11:05:12:558 -> 2007.00
11:05:12:569 -> 2043.00
11:05:12:579 -> 2007.00
11:05:12:589 -> 2023.00
11:05:12:600 -> 1974.00
11:05:12:610 -> 2088.00
11:05:12:622 -> 1989.00
11:05:12:631 -> 2089.00
11:05:12:641 -> 1968.00
11:05:12:651 -> 2109.00
11:05:12:662 -> 1913.00
11:05:12:673 -> 2102.00
11:05:12:683 -> 1913.00
11:05:12:693 -> 2108.00
11:05:12:704 -> 1938.00
11:05:12:713 -> 2127.00
11:05:12:725 -> 1941.00
11:05:12:735 -> 2130.00
11:05:12:745 -> 1908.00
11:05:12:756 -> 2119.00
11:05:12:766 -> 2022.00
11:05:12:776 -> 2076.00
11:05:12:786 -> 1834.00
11:05:12:797 -> 2100.00
11:05:12:807 -> 1969.00
11:05:12:818 -> 2052.00
11:05:12:828 -> 1996.00
11:05:12:838 -> 2056.00
11:05:12:849 -> 2016.00
11:05:12:859 -> 2024.00
11:05:12:872 -> 2064.00
11:05:12:880 -> 1976.00
11:05:12:890 -> 2074.00
11:05:12:900 -> 1985.00
11:05:12:911 -> 2084.00
11:05:12:921 -> 1969.00
11:05:12:932 -> 2100.00
11:05:12:942 -> 1951.00
11:05:12:952 -> 2067.00
11:05:12:964 -> 1900.00
11:05:12:988 -> 2074.00
11:05:12:989 -> 1933.00
11:05:12:994 -> 2128.00
11:05:13:004 -> 1939.00
11:05:13:014 -> 2137.00
11:05:13:025 -> 1920.00
11:05:13:035 -> 2155.00
11:05:13:046 -> 1943.00
11:05:13:056 -> 2132.00
11:05:13:066 -> 1872.00
11:05:13:076 -> 2093.00
11:05:13:087 -> 1897.00
11:05:13:097 -> 2128.00
11:05:13:107 -> 1988.00
11:05:13:118 -> 2063.00
11:05:13:148 -> 1987.00
11:05:13:148 -> 2014.00
11:05:13:149 -> 2002.00
11:05:13:159 -> 2011.00
11:05:13:169 -> 2049.00
11:05:13:183 -> 1986.00
11:05:13:190 -> 2041.00
11:05:13:200 -> 1993.00
11:05:13:211 -> 2104.00
11:05:13:221 -> 1977.00
11:05:13:231 -> 2103.00
11:05:13:242 -> 1944.00
11:05:13:252 -> 2118.00
11:05:13:262 -> 1906.00
11:05:13:272 -> 2124.00
11:05:13:283 -> 1929.00
11:05:13:293 -> 2132.00
11:05:13:303 -> 1922.00
11:05:13:314 -> 2132.00
11:05:13:324 -> 1948.00
11:05:13:334 -> 2127.00
11:05:13:345 -> 1941.00
11:05:13:355 -> 2123.00
11:05:13:365 -> 1916.00
11:05:13:376 -> 2076.00
11:05:13:386 -> 1920.00
11:05:13:396 -> 2078.00
11:05:13:407 -> 1908.00
11:05:13:417 -> 2096.00
11:05:13:427 -> 1957.00
11:05:13:437 -> 2075.00
11:05:13:448 -> 2004.00
11:05:13:458 -> 2072.00
11:05:13:468 -> 2013.00
11:05:13:479 -> 2014.00
11:05:13:508 -> 2036.00
11:05:13:509 -> 1999.00
11:05:13:510 -> 2044.00
11:05:13:520 -> 1975.00
11:05:13:530 -> 2084.00
11:05:13:541 -> 1954.00
11:05:13:551 -> 2112.00
11:05:13:561 -> 1929.00
11:05:13:571 -> 2102.00
11:05:13:582 -> 1938.00
11:05:13:592 -> 2114.00
11:05:13:602 -> 1893.00
11:05:13:613 -> 2117.00
11:05:13:623 -> 1916.00
11:05:13:633 -> 2157.00
11:05:13:644 -> 1918.00
11:05:13:654 -> 2152.00
11:05:13:664 -> 1941.00
11:05:13:675 -> 2150.00
11:05:13:685 -> 1921.00
11:05:13:695 -> 2138.00
11:05:13:706 -> 2016.00
11:05:13:716 -> 2101.00
11:05:13:726 -> 1870.00
11:05:13:736 -> 2078.00
11:05:13:747 -> 1952.00
11:05:13:757 -> 2078.00
11:05:13:767 -> 1976.00
11:05:13:782 -> 2068.00
11:05:13:788 -> 2016.00
11:05:13:799 -> 2028.00
11:05:13:809 -> 2032.00
11:05:13:819 -> 1990.00
11:05:13:830 -> 2051.00
11:05:13:840 -> 1998.00
11:05:13:850 -> 2096.00
11:05:13:861 -> 1969.00
11:05:13:871 -> 2099.00
11:05:13:882 -> 1936.00
11:05:13:892 -> 2096.00
11:05:13:902 -> 1925.00
11:05:13:913 -> 2118.00
11:05:13:924 -> 1963.00
11:05:13:933 -> 2129.00
11:05:13:974 -> 1934.00
11:05:13:975 -> 2129.00
11:05:13:975 -> 1926.00
11:05:13:975 -> 2152.00
11:05:13:985 -> 1925.00
11:05:13:995 -> 2144.00
11:05:14:005 -> 1913.00
11:05:14:030 -> 2119.00
11:05:14:031 -> 1902.00
11:05:14:036 -> 2106.00
11:05:14:046 -> 1852.00
11:05:14:057 -> 2086.00
11:05:14:067 -> 1947.00
11:05:14:077 -> 2081.00
11:05:14:088 -> 1978.00
11:05:14:098 -> 2065.00
11:05:14:108 -> 2024.00
11:05:14:119 -> 2021.00
11:05:14:129 -> 2026.00
11:05:14:139 -> 2021.00
11:05:14:150 -> 2088.00
11:05:14:160 -> 1982.00
11:05:14:170 -> 2070.00
11:05:14:181 -> 1964.00
11:05:14:191 -> 2092.00
11:05:14:201 -> 1933.00
11:05:14:212 -> 2103.00
11:05:14:222 -> 1922.00
11:05:14:232 -> 2107.00
11:05:14:242 -> 1922.00
11:05:14:253 -> 2059.00
11:05:14:263 -> 1927.00
11:05:14:274 -> 2152.00
11:05:14:284 -> 1926.00
11:05:14:294 -> 2137.00
11:05:14:305 -> 1944.00
11:05:14:315 -> 2157.00
11:05:14:325 -> 1890.00
11:05:14:335 -> 2109.00
11:05:14:346 -> 1946.00
11:05:14:356 -> 2108.00
11:05:14:367 -> 1907.00
11:05:14:377 -> 2063.00
11:05:14:390 -> 1978.00
11:05:14:398 -> 2045.00
11:05:14:408 -> 2034.00
11:05:14:418 -> 1975.00
11:05:14:429 -> 2044.00
11:05:14:439 -> 2007.00
11:05:14:449 -> 2071.00
11:05:14:460 -> 1992.00
11:05:14:470 -> 2059.00
11:05:14:481 -> 1984.00
11:05:14:491 -> 2107.00
11:05:14:501 -> 1961.00
11:05:14:512 -> 2092.00
11:05:14:522 -> 1958.00
11:05:14:548 -> 2110.00
11:05:14:549 -> 1917.00
11:05:14:553 -> 2100.00
11:05:14:564 -> 1909.00
11:05:14:574 -> 2132.00
11:05:14:584 -> 1927.00
11:05:14:594 -> 2137.00
11:05:14:605 -> 1907.00
11:05:14:615 -> 2159.00
11:05:14:625 -> 1930.00
11:05:14:636 -> 2115.00
11:05:14:646 -> 1907.00
11:05:14:657 -> 2069.00
11:05:14:667 -> 1935.00
11:05:14:677 -> 2084.00
11:05:14:687 -> 1929.00
11:05:14:698 -> 2038.00
11:05:14:708 -> 2021.00
11:05:14:719 -> 2026.00
11:05:14:729 -> 2021.00
11:05:14:739 -> 2002.00
11:05:14:750 -> 2082.00
11:05:14:760 -> 1968.00
11:05:14:770 -> 2068.00
11:05:14:781 -> 1950.00
11:05:14:791 -> 2109.00
11:05:14:801 -> 1906.00
11:05:14:811 -> 2099.00
11:05:14:822 -> 1960.00
11:05:14:832 -> 2124.00
11:05:14:842 -> 1918.00
11:05:14:853 -> 2099.00
11:05:14:883 -> 1921.00
11:05:14:884 -> 2143.00
11:05:14:884 -> 1943.00
11:05:14:894 -> 2139.00
11:05:14:904 -> 1928.00
11:05:14:915 -> 2131.00
11:05:14:925 -> 1900.00
11:05:14:935 -> 2138.00
11:05:14:946 -> 2038.00
11:05:14:956 -> 2106.00
11:05:14:966 -> 1873.00
11:05:14:976 -> 2091.00
11:05:14:987 -> 1947.00
11:05:14:997 -> 2077.00
11:05:15:007 -> 1981.00
11:05:15:018 -> 2064.00
11:05:15:028 -> 2032.00
11:05:15:038 -> 1993.00
11:05:15:064 -> 2039.00
11:05:15:065 -> 1992.00
11:05:15:069 -> 2062.00
11:05:15:080 -> 1978.00
11:05:15:090 -> 2101.00
11:05:15:102 -> 1952.00
11:05:15:111 -> 2124.00
11:05:15:121 -> 1955.00
11:05:15:131 -> 2124.00
11:05:15:144 -> 1900.00
11:05:15:154 -> 2143.00
11:05:15:164 -> 1929.00
11:05:15:175 -> 2130.00
11:05:15:185 -> 1913.00
11:05:15:195 -> 2128.00
11:05:15:206 -> 2025.00
11:05:15:216 -> 2090.00
11:05:15:226 -> 1884.00
11:05:15:237 -> 2113.00
11:05:15:252 -> 1975.00
11:05:15:257 -> 2062.00
11:05:15:267 -> 1986.00
11:05:15:278 -> 2041.00
11:05:15:288 -> 2010.00
11:05:15:298 -> 2049.00
11:05:15:309 -> 2039.00
11:05:15:319 -> 1987.00
11:05:15:330 -> 2027.00
11:05:15:340 -> 1994.00
11:05:15:350 -> 2091.00
11:05:15:360 -> 1987.00
11:05:15:371 -> 2085.00
11:05:15:381 -> 1934.00
11:05:15:391 -> 2103.00
11:05:15:403 -> 1952.00
11:05:15:413 -> 2141.00
11:05:15:423 -> 1941.00
11:05:15:434 -> 2101.00
11:05:15:444 -> 1934.00
11:05:15:455 -> 2156.00
11:05:15:465 -> 1906.00
11:05:15:479 -> 2152.00
11:05:15:485 -> 1927.00
11:05:15:496 -> 2107.00
11:05:15:507 -> 1835.00
11:05:15:517 -> 2066.00
11:05:15:527 -> 1982.00
11:05:15:538 -> 2055.00
11:05:15:548 -> 1967.00
11:05:15:559 -> 2037.00
11:05:15:581 -> 2052.00
11:05:15:582 -> 1979.00
11:05:15:590 -> 2069.00
11:05:15:600 -> 1966.00
11:05:15:610 -> 2086.00
11:05:15:621 -> 1961.00
11:05:15:631 -> 2131.00
11:05:15:641 -> 1917.00
11:05:15:652 -> 2122.00
11:05:15:662 -> 1927.00
11:05:15:672 -> 2123.00
11:05:15:683 -> 1920.00
11:05:15:693 -> 2132.00
11:05:15:726 -> 1915.00
11:05:15:726 -> 2143.00
11:05:15:726 -> 1906.00
11:05:15:734 -> 2149.00
11:05:15:744 -> 1922.00
11:05:15:755 -> 2135.00
11:05:15:765 -> 1943.00
11:05:15:775 -> 2133.00
11:05:15:786 -> 1984.00
11:05:15:796 -> 2096.00
11:05:15:806 -> 1881.00
11:05:15:817 -> 2046.00
11:05:15:827 -> 1980.00
11:05:15:837 -> 2049.00
11:05:15:853 -> 1984.00
11:05:15:858 -> 2037.00
11:05:15:868 -> 2010.00
11:05:15:879 -> 1989.00
11:05:15:889 -> 2074.00
11:05:15:899 -> 1984.00
11:05:15:909 -> 2080.00
11:05:15:920 -> 1984.00
11:05:15:930 -> 2041.00
11:05:15:940 -> 1955.00
11:05:15:951 -> 2086.00
11:05:15:961 -> 1934.00
11:05:15:971 -> 2104.00
11:05:15:982 -> 1944.00
11:05:15:992 -> 2103.00
11:05:16:002 -> 1922.00
11:05:16:013 -> 2122.00
11:05:16:023 -> 1932.00
11:05:16:033 -> 2147.00
11:05:16:043 -> 1887.00
11:05:16:054 -> 2160.00
11:05:16:064 -> 1939.00
11:05:16:075 -> 2125.00
11:05:16:101 -> 1943.00
11:05:16:101 -> 2129.00
11:05:16:106 -> 1974.00
11:05:16:116 -> 2110.00
11:05:16:126 -> 1875.00
11:05:16:137 -> 2079.00
11:05:16:147 -> 1954.00
11:05:16:157 -> 2072.00
11:05:16:168 -> 1990.00
11:05:16:178 -> 2022.00
11:05:16:188 -> 2046.00
11:05:16:199 -> 2007.00
11:05:16:209 -> 2063.00
11:05:16:219 -> 1990.00
11:05:16:230 -> 2068.00
11:05:16:240 -> 1981.00
11:05:16:250 -> 2104.00
11:05:16:260 -> 1938.00
11:05:16:271 -> 2096.00
11:05:16:281 -> 1936.00
11:05:16:292 -> 2099.00
11:05:16:304 -> 1932.00
11:05:16:312 -> 2106.00
11:05:16:322 -> 1897.00
11:05:16:333 -> 2120.00
11:05:16:343 -> 1918.00
11:05:16:353 -> 2153.00
11:05:16:364 -> 1916.00
11:05:16:374 -> 2137.00
11:05:16:384 -> 1935.00
11:05:16:395 -> 2154.00
11:05:16:405 -> 1915.00
11:05:16:415 -> 2139.00
11:05:16:426 -> 1961.00
11:05:16:436 -> 2104.00
11:05:16:446 -> 1876.00
11:05:16:457 -> 2091.00
11:05:16:467 -> 1954.00
11:05:16:477 -> 2074.00
11:05:16:487 -> 1978.00
11:05:16:498 -> 2002.00
11:05:16:508 -> 2012.00
11:05:16:518 -> 2003.00
11:05:16:551 -> 2027.00
11:05:16:551 -> 1983.00
11:05:16:551 -> 2071.00
11:05:16:559 -> 1985.00
11:05:16:570 -> 2064.00
11:05:16:580 -> 1955.00
11:05:16:590 -> 2104.00
11:05:16:615 -> 1933.00
11:05:16:616 -> 2095.00
11:05:16:625 -> 1917.00
11:05:16:632 -> 2099.00
11:05:16:642 -> 1913.00
11:05:16:652 -> 2139.00
11:05:16:663 -> 1905.00
11:05:16:673 -> 2133.00
11:05:16:683 -> 1932.00
11:05:16:694 -> 2142.00
11:05:16:704 -> 1921.00
11:05:16:715 -> 2130.00
11:05:16:725 -> 1934.00
11:05:16:735 -> 2140.00
11:05:16:745 -> 1882.00
11:05:16:755 -> 2112.00
11:05:16:766 -> 1923.00
11:05:16:776 -> 2070.00
11:05:16:786 -> 1914.00
11:05:16:797 -> 2090.00
11:05:16:807 -> 1967.00
11:05:16:817 -> 2054.00
11:05:16:828 -> 1973.00
11:05:16:838 -> 2050.00
11:05:16:849 -> 2003.00
11:05:16:859 -> 1967.00
11:05:16:869 -> 2063.00
11:05:16:880 -> 2022.00
11:05:16:890 -> 2081.00
11:05:16:900 -> 1945.00
11:05:16:911 -> 2096.00
11:05:16:921 -> 1927.00
11:05:16:931 -> 2069.00
11:05:16:941 -> 1947.00
11:05:16:952 -> 2095.00
11:05:16:962 -> 1928.00
11:05:16:972 -> 2109.00
11:05:16:983 -> 1916.00
11:05:16:993 -> 2164.00
11:05:17:003 -> 1926.00
11:05:17:013 -> 2146.00
11:05:17:024 -> 1920.00
11:05:17:034 -> 2137.00
11:05:17:045 -> 1928.00
11:05:17:055 -> 2123.00
11:05:17:065 -> 1932.00
11:05:17:075 -> 2129.00
11:05:17:086 -> 1928.00
11:05:17:096 -> 2089.00
11:05:17:106 -> 1925.00
11:05:17:130 -> 2060.00
11:05:17:131 -> 1977.00
11:05:17:137 -> 2013.00
11:05:17:148 -> 2013.00
11:05:17:158 -> 2029.00
11:05:17:168 -> 1997.00
11:05:17:179 -> 2024.00
11:05:17:189 -> 2043.00
11:05:17:199 -> 1985.00
11:05:17:210 -> 2051.00
11:05:17:220 -> 1996.00
11:05:17:230 -> 2067.00
11:05:17:241 -> 1971.00
11:05:17:251 -> 2044.00
11:05:17:261 -> 1956.00
11:05:17:272 -> 2087.00
11:05:17:282 -> 1954.00
11:05:17:296 -> 2090.00
11:05:17:303 -> 1929.00
11:05:17:313 -> 2105.00
11:05:17:323 -> 1952.00
11:05:17:334 -> 2109.00
11:05:17:344 -> 1949.00
11:05:17:355 -> 2104.00
11:05:17:365 -> 1968.00
11:05:17:375 -> 2048.00
11:05:17:385 -> 2009.00
11:05:17:395 -> 2105.00
11:05:17:406 -> 1885.00
11:05:17:419 -> 2064.00
11:05:17:427 -> 1955.00
11:05:17:437 -> 2081.00
11:05:17:447 -> 1963.00
11:05:17:457 -> 2062.00
11:05:17:468 -> 2045.00
11:05:17:478 -> 2009.00
11:05:17:489 -> 2029.00
11:05:17:499 -> 2032.00
11:05:17:509 -> 2035.00
11:05:17:520 -> 2035.00
11:05:17:530 -> 2062.00
11:05:17:540 -> 2000.00
11:05:17:551 -> 2043.00
11:05:17:561 -> 1947.00
11:05:17:571 -> 2077.00
11:05:17:582 -> 1995.00
11:05:17:592 -> 2072.00
11:05:17:602 -> 1971.00
11:05:17:612 -> 2090.00
11:05:17:623 -> 1971.00
11:05:17:678 -> 2117.00
11:05:17:679 -> 1986.00
11:05:17:679 -> 2081.00
11:05:17:679 -> 1927.00
11:05:17:679 -> 2105.00
11:05:17:685 -> 1967.00
11:05:17:695 -> 2088.00
11:05:17:705 -> 2020.00
11:05:17:716 -> 2068.00
11:05:17:726 -> 1906.00
11:05:17:736 -> 2085.00
11:05:17:746 -> 1939.00
11:05:17:757 -> 2086.00
11:05:17:767 -> 1962.00
11:05:17:778 -> 2023.00
11:05:17:788 -> 2005.00
11:05:17:798 -> 2045.00
11:05:17:808 -> 1978.00
11:05:17:819 -> 2018.00
11:05:17:829 -> 2034.00
11:05:17:840 -> 2042.00
11:05:17:850 -> 2045.00
11:05:17:860 -> 1991.00
11:05:17:871 -> 2039.00
11:05:17:881 -> 1982.00
11:05:17:891 -> 2062.00
11:05:17:901 -> 2013.00
11:05:17:912 -> 2066.00
11:05:17:922 -> 1951.00
11:05:17:932 -> 2069.00
11:05:17:943 -> 1992.00
11:05:17:953 -> 2080.00
11:05:17:963 -> 1957.00
11:05:17:973 -> 2111.00
11:05:17:984 -> 1948.00
11:05:17:999 -> 2102.00
11:05:18:004 -> 1943.00
11:05:18:015 -> 2048.00
11:05:18:025 -> 2096.00
11:05:18:035 -> 2116.00
11:05:18:046 -> 1871.00
11:05:18:056 -> 2092.00
11:05:18:066 -> 1953.00
11:05:18:077 -> 2049.00
11:05:18:087 -> 1999.00
11:05:18:100 -> 2024.00
11:05:18:108 -> 1986.00
11:05:18:118 -> 2037.00
11:05:18:129 -> 2024.00
11:05:18:139 -> 2006.00
11:05:18:149 -> 2063.00
11:05:18:160 -> 2050.00
11:05:18:170 -> 2061.00
11:05:18:193 -> 2010.00
11:05:18:194 -> 2060.00
11:05:18:201 -> 1990.00
11:05:18:211 -> 2077.00
11:05:18:232 -> 2077.00
11:05:18:222 -> 2007.00
11:05:18:242 -> 1965.00
11:05:18:252 -> 2064.00
11:05:18:263 -> 1925.00
11:05:18:273 -> 2093.00
11:05:18:283 -> 1967.00
11:05:18:294 -> 2116.00
11:05:18:304 -> 1962.00
11:05:18:314 -> 2047.00
11:05:18:325 -> 1922.00
11:05:18:335 -> 2097.00
11:05:18:347 -> 1926.00
11:05:18:356 -> 2022.00
11:05:18:366 -> 1904.00
11:05:18:376 -> 2072.00
11:05:18:386 -> 1985.00
11:05:18:397 -> 2070.00
11:05:18:407 -> 1974.00
11:05:18:441 -> 2026.00
11:05:18:442 -> 2002.00
11:05:18:442 -> 2008.00
11:05:18:448 -> 2041.00
11:05:18:459 -> 2011.00
11:05:18:469 -> 2087.00
11:05:18:480 -> 2010.00
11:05:18:490 -> 2062.00
11:05:18:500 -> 1992.00
11:05:18:510 -> 2071.00
11:05:18:521 -> 1965.00
11:05:18:531 -> 2071.00
11:05:18:541 -> 1978.00
11:05:18:553 -> 2073.00
11:05:18:562 -> 1968.00
11:05:18:572 -> 2063.00
11:05:18:583 -> 1993.00
11:05:18:593 -> 2110.00
11:05:18:603 -> 1996.00
11:05:18:614 -> 2085.00
11:05:18:624 -> 1972.00
11:05:18:634 -> 2074.00
11:05:18:644 -> 1984.00
11:05:18:659 -> 2106.00
11:05:18:665 -> 1946.00
11:05:18:676 -> 2071.00
11:05:18:686 -> 1927.00
11:05:18:712 -> 2051.00
11:05:18:713 -> 1997.00
11:05:18:717 -> 2053.00
11:05:18:727 -> 1963.00
11:05:18:737 -> 2072.00
11:05:18:748 -> 1944.00
11:05:18:758 -> 2042.00
11:05:18:768 -> 2017.00
11:05:18:779 -> 2022.00
11:05:18:789 -> 2029.00
11:05:18:799 -> 1999.00
11:05:18:814 -> 2021.00
11:05:18:820 -> 1990.00
11:05:18:832 -> 2082.00
11:05:18:843 -> 1969.00
11:05:18:853 -> 2108.00
11:05:18:863 -> 1975.00
11:05:18:874 -> 2103.00
11:05:18:884 -> 1963.00
11:05:18:894 -> 2097.00
11:05:18:905 -> 1968.00
11:05:18:915 -> 2045.00
11:05:18:925 -> 2068.00
11:05:18:935 -> 2017.00
11:05:18:946 -> 1933.00
11:05:18:957 -> 2063.00
11:05:18:967 -> 2006.00
11:05:18:980 -> 2019.00
11:05:18:988 -> 2001.00
11:05:18:998 -> 2034.00
11:05:19:008 -> 2028.00
11:05:19:019 -> 2024.00
11:05:19:029 -> 2073.00
11:05:19:039 -> 2030.00
11:05:19:049 -> 2073.00
11:05:19:060 -> 1945.00
11:05:19:070 -> 2078.00
11:05:19:081 -> 2004.00
11:05:19:091 -> 2053.00
11:05:19:101 -> 1967.00
11:05:19:116 -> 2083.00
11:05:19:122 -> 1979.00
11:05:19:132 -> 2052.00
11:05:19:142 -> 1961.00
11:05:19:153 -> 2116.00
11:05:19:163 -> 1938.00
11:05:19:173 -> 2089.00
11:05:19:202 -> 1950.00
11:05:19:203 -> 2119.00
11:05:19:204 -> 1929.00
11:05:19:234 -> 2063.00
11:05:19:247 -> 1986.00
11:05:19:248 -> 2073.00
11:05:19:257 -> 2023.00
11:05:19:268 -> 1962.00
11:05:19:278 -> 2032.00
11:05:19:288 -> 2031.00
11:05:19:299 -> 1991.00
11:05:19:309 -> 2070.00
11:05:19:320 -> 1982.00
11:05:19:330 -> 2056.00
11:05:19:340 -> 2006.00
11:05:19:350 -> 2079.00
11:05:19:361 -> 1949.00
11:05:19:371 -> 2078.00
11:05:19:381 -> 1943.00
11:05:19:392 -> 2087.00
11:05:19:402 -> 1978.00
11:05:19:412 -> 2045.00
11:05:19:423 -> 1962.00
11:05:19:433 -> 2097.00
11:05:19:443 -> 1972.00
11:05:19:454 -> 2089.00
11:05:19:464 -> 1982.00
11:05:19:474 -> 2084.00
11:05:19:485 -> 1980.00
11:05:19:495 -> 2090.00
11:05:19:505 -> 1891.00
11:05:19:515 -> 2085.00
11:05:19:526 -> 1943.00
11:05:19:538 -> 2068.00
11:05:19:547 -> 2005.00
11:05:19:557 -> 2038.00
11:05:19:567 -> 2005.00
11:05:19:577 -> 2043.00
11:05:19:588 -> 2020.00
11:05:19:598 -> 2012.00
11:05:19:609 -> 2052.00
11:05:19:619 -> 1987.00
11:05:19:629 -> 2030.00
11:05:19:640 -> 2010.00
11:05:19:650 -> 2068.00
11:05:19:660 -> 1974.00
11:05:19:670 -> 2075.00
11:05:19:681 -> 1945.00
11:05:19:691 -> 2058.00
11:05:19:701 -> 1940.00
11:05:19:712 -> 2082.00
11:05:19:722 -> 1967.00
11:05:19:732 -> 2077.00
11:05:19:749 -> 1958.00
11:05:19:753 -> 2092.00
11:05:19:763 -> 1966.00
11:05:19:774 -> 2102.00
11:05:19:784 -> 1977.00
11:05:19:795 -> 2117.00
11:05:19:805 -> 2073.00
11:05:19:815 -> 2040.00
11:05:19:825 -> 1891.00
11:05:19:836 -> 2083.00
11:05:19:849 -> 1949.00
11:05:19:857 -> 2040.00
11:05:19:867 -> 2006.00
11:05:19:877 -> 2028.00
11:05:19:888 -> 2012.00
11:05:19:898 -> 1985.00
11:05:19:908 -> 2027.00
11:05:19:918 -> 2015.00
11:05:19:929 -> 2030.00
11:05:19:939 -> 1999.00
11:05:19:949 -> 2042.00
11:05:19:960 -> 1978.00
11:05:19:970 -> 2085.00
11:05:19:980 -> 1931.00
11:05:19:991 -> 2077.00
11:05:20:001 -> 1987.00
11:05:20:011 -> 2063.00
11:05:20:021 -> 1970.00
11:05:20:032 -> 2088.00
11:05:20:042 -> 1990.00
11:05:20:053 -> 2048.00
11:05:20:063 -> 1984.00
11:05:20:073 -> 2107.00
11:05:20:084 -> 1936.00
11:05:20:094 -> 2107.00
11:05:20:104 -> 1951.00
11:05:20:114 -> 2111.00
11:05:20:125 -> 1977.00
11:05:20:135 -> 2041.00
11:05:20:145 -> 1910.00
11:05:20:156 -> 2091.00
11:05:20:166 -> 1900.00
11:05:20:176 -> 2063.00
11:05:20:186 -> 1968.00
11:05:20:197 -> 2020.00
11:05:20:207 -> 1999.00
11:05:20:217 -> 2030.00
11:05:20:228 -> 2030.00
11:05:20:238 -> 2019.00
11:05:20:248 -> 2051.00
11:05:20:264 -> 2018.00
11:05:20:269 -> 2059.00
11:05:20:280 -> 1994.00
11:05:20:290 -> 2068.00
11:05:20:300 -> 1971.00
11:05:20:310 -> 2096.00
11:05:20:321 -> 1964.00
11:05:20:331 -> 2044.00
11:05:20:341 -> 1972.00
11:05:20:374 -> 2082.00
11:05:20:374 -> 1960.00
11:05:20:374 -> 2068.00
11:05:20:382 -> 1986.00
11:05:20:393 -> 2081.00
11:05:20:403 -> 1981.00
11:05:20:414 -> 2099.00
11:05:20:424 -> 1951.00
11:05:20:434 -> 2089.00
11:05:20:445 -> 1934.00
11:05:20:455 -> 2072.00
11:05:20:465 -> 1893.00
11:05:20:476 -> 2032.00
11:05:20:486 -> 1948.00
11:05:20:496 -> 2062.00
11:05:20:507 -> 1987.00
11:05:20:517 -> 2053.00
11:05:20:527 -> 2004.00
11:05:20:538 -> 2022.00
11:05:20:548 -> 2053.00
11:05:20:558 -> 1985.00
11:05:20:569 -> 2080.00
11:05:20:579 -> 1997.00
11:05:20:589 -> 2066.00
11:05:20:600 -> 1988.00
11:05:20:610 -> 2071.00
11:05:20:621 -> 1964.00
11:05:20:631 -> 2049.00
11:05:20:641 -> 1939.00
11:05:20:651 -> 2094.00
11:05:20:662 -> 1977.00
11:05:20:672 -> 2039.00
11:05:20:682 -> 1978.00
11:05:20:693 -> 2104.00
11:05:20:703 -> 1973.00
11:05:20:713 -> 2101.00
11:05:20:724 -> 1974.00
11:05:20:734 -> 2084.00
11:05:20:744 -> 1973.00
11:05:20:755 -> 2106.00
11:05:20:780 -> 1917.00
11:05:20:781 -> 2107.00
11:05:20:786 -> 1910.00
11:05:20:796 -> 2046.00
11:05:20:806 -> 1989.00
11:05:20:817 -> 2030.00
11:05:20:827 -> 2000.00
11:05:20:837 -> 2005.00
11:05:20:848 -> 2004.00
11:05:20:858 -> 2062.00
11:05:20:868 -> 2045.00
11:05:20:879 -> 2008.00
11:05:20:889 -> 2062.00
11:05:20:899 -> 2018.00
11:05:20:910 -> 2065.00
11:05:20:920 -> 1983.00
11:05:20:930 -> 2094.00
11:05:20:941 -> 1977.00
11:05:20:951 -> 2077.00
11:05:20:961 -> 1967.00
11:05:20:971 -> 2098.00
11:05:20:982 -> 1998.00
11:05:20:993 -> 2077.00
11:05:21:003 -> 1975.00
11:05:21:013 -> 2086.00
11:05:21:023 -> 1937.00
11:05:21:033 -> 2119.00
11:05:21:044 -> 1953.00
11:05:21:054 -> 2103.00
11:05:21:065 -> 1893.00
11:05:21:075 -> 2050.00
11:05:21:085 -> 1926.00
11:05:21:096 -> 2068.00
11:05:21:106 -> 1956.00
11:05:21:116 -> 2032.00
11:05:21:126 -> 1960.00
11:05:21:137 -> 2037.00
11:05:21:147 -> 2011.00
11:05:21:157 -> 2026.00
11:05:21:168 -> 2022.00
11:05:21:178 -> 1998.00
11:05:21:188 -> 2046.00
11:05:21:199 -> 1992.00
11:05:21:233 -> 2079.00
11:05:21:233 -> 1986.00
11:05:21:233 -> 2074.00
11:05:21:240 -> 2001.00
11:05:21:250 -> 2097.00
11:05:21:260 -> 1974.00
11:05:21:271 -> 2060.00
11:05:21:295 -> 1954.00
11:05:21:295 -> 2095.00
11:05:21:304 -> 1959.00
11:05:21:312 -> 2064.00
11:05:21:322 -> 2005.00
11:05:21:332 -> 2091.00
11:05:21:343 -> 1968.00
11:05:21:353 -> 2077.00
11:05:21:363 -> 1986.00
11:05:21:374 -> 2061.00
11:05:21:384 -> 1984.00
11:05:21:394 -> 2107.00
11:05:21:405 -> 2014.00
11:05:21:415 -> 2074.00
11:05:21:425 -> 1913.00
11:05:21:436 -> 2045.00
11:05:21:446 -> 1983.00
11:05:21:457 -> 2011.00
11:05:21:467 -> 1994.00
11:05:21:477 -> 2049.00
11:05:21:487 -> 2020.00
11:05:21:497 -> 2002.00
11:05:21:508 -> 2036.00
11:05:21:519 -> 1995.00
11:05:21:529 -> 2081.00
11:05:21:539 -> 1984.00
11:05:21:549 -> 2102.00
11:05:21:559 -> 1972.00
11:05:21:570 -> 2094.00
11:05:21:585 -> 1951.00
11:05:21:590 -> 2049.00
11:05:21:601 -> 1974.00
11:05:21:611 -> 2074.00
11:05:21:621 -> 1967.00
11:05:21:631 -> 2069.00
11:05:21:642 -> 1987.00
11:05:21:652 -> 2103.00
11:05:21:662 -> 1951.00
11:05:21:673 -> 2110.00
11:05:21:683 -> 1971.00
11:05:21:693 -> 2101.00
11:05:21:704 -> 1976.00
11:05:21:714 -> 2082.00
11:05:21:724 -> 1947.00
11:05:21:734 -> 2074.00
11:05:21:745 -> 2036.00
11:05:21:755 -> 2100.00
11:05:21:766 -> 1902.00
11:05:21:776 -> 2068.00
11:05:21:787 -> 1965.00
11:05:21:812 -> 1991.00
11:05:21:813 -> 2051.00
11:05:21:818 -> 1990.00
11:05:21:830 -> 2069.00
11:05:21:840 -> 2013.00
11:05:21:850 -> 2071.00
11:05:21:860 -> 1945.00
11:05:21:871 -> 2078.00
11:05:21:881 -> 1956.00
11:05:21:891 -> 2106.00
11:05:21:902 -> 1979.00
11:05:21:912 -> 2082.00
11:05:21:922 -> 2014.00
11:05:21:933 -> 2073.00
11:05:21:943 -> 1964.00
11:05:21:953 -> 2079.00
11:05:21:964 -> 1958.00
11:05:21:974 -> 2126.00
11:05:21:984 -> 1953.00
11:05:21:995 -> 2071.00
11:05:22:005 -> 1909.00
11:05:22:015 -> 2071.00
11:05:22:026 -> 1950.00
11:05:22:036 -> 2042.00
11:05:22:046 -> 1993.00
11:05:22:057 -> 2039.00
11:05:22:068 -> 2021.00
11:05:22:077 -> 2016.00
11:05:22:088 -> 2034.00
11:05:22:098 -> 1995.00
11:05:22:108 -> 2060.00
11:05:22:118 -> 2015.00
11:05:22:129 -> 2071.00
11:05:22:139 -> 1986.00
11:05:22:149 -> 2093.00
11:05:22:160 -> 1951.00
11:05:22:170 -> 2076.00
11:05:22:180 -> 1950.00
11:05:22:191 -> 2063.00
11:05:22:201 -> 1960.00
11:05:22:211 -> 2074.00
11:05:22:222 -> 1964.00
11:05:22:232 -> 2083.00
11:05:22:242 -> 2004.00
11:05:22:252 -> 2076.00
11:05:22:263 -> 1960.00
11:05:22:273 -> 2088.00
11:05:22:284 -> 1967.00
11:05:22:294 -> 2108.00
11:05:22:304 -> 2035.00
11:05:22:330 -> 2062.00
11:05:22:331 -> 1909.00
11:05:22:335 -> 2035.00
11:05:22:350 -> 1967.00
11:05:22:356 -> 2044.00
11:05:22:366 -> 1998.00
11:05:22:376 -> 2025.00
11:05:22:387 -> 2003.00
11:05:22:397 -> 2015.00
11:05:22:429 -> 2013.00
11:05:22:430 -> 1983.00
11:05:22:430 -> 2053.00
11:05:22:438 -> 1988.00
11:05:22:449 -> 2086.00
11:05:22:459 -> 1980.00
11:05:22:469 -> 2106.00
11:05:22:480 -> 1936.00
11:05:22:490 -> 2088.00
11:05:22:500 -> 1984.00
11:05:22:511 -> 2062.00
11:05:22:521 -> 1964.00
11:05:22:531 -> 2074.00
11:05:22:542 -> 1997.00
11:05:22:552 -> 2078.00
11:05:22:562 -> 1997.00
11:05:22:573 -> 2091.00
11:05:22:583 -> 1937.00
11:05:22:593 -> 2081.00
11:05:22:604 -> 1969.00
11:05:22:614 -> 2084.00
11:05:22:624 -> 2042.00
11:05:22:635 -> 2059.00
11:05:22:645 -> 1908.00
11:05:22:655 -> 2055.00
11:05:22:665 -> 1944.00
11:05:22:676 -> 2039.00
11:05:22:686 -> 2005.00
11:05:22:696 -> 2039.00
11:05:22:707 -> 2039.00
11:05:22:717 -> 2015.00
11:05:22:727 -> 2028.00
11:05:22:738 -> 2016.00
11:05:22:748 -> 2032.00
11:05:22:758 -> 2024.00
11:05:22:769 -> 2073.00
11:05:22:779 -> 1943.00
11:05:22:789 -> 2065.00
11:05:22:800 -> 1933.00
11:05:22:810 -> 2090.00
11:05:22:820 -> 1952.00
11:05:22:847 -> 2045.00
11:05:22:848 -> 1979.00
11:05:22:851 -> 2070.00
11:05:22:861 -> 1915.00
11:05:22:871 -> 2067.00
11:05:22:882 -> 1997.00
11:05:22:892 -> 2083.00
11:05:22:903 -> 1989.00
11:05:22:913 -> 2105.00
11:05:22:923 -> 1975.00
11:05:22:933 -> 2111.00
11:05:22:947 -> 1955.00
11:05:22:954 -> 2085.00
11:05:22:965 -> 2038.00
11:05:22:975 -> 2053.00
11:05:22:985 -> 1942.00
11:05:22:996 -> 2077.00
11:05:23:006 -> 1990.00
11:05:23:016 -> 2033.00
11:05:23:026 -> 1984.00
11:05:23:037 -> 2007.00
11:05:23:047 -> 2007.00
11:05:23:057 -> 2012.00
11:05:23:068 -> 2037.00
11:05:23:078 -> 2021.00
11:05:23:089 -> 2083.00
11:05:23:099 -> 1948.00
11:05:23:109 -> 2100.00
11:05:23:120 -> 1974.00
11:05:23:130 -> 2090.00
11:05:23:140 -> 1943.00
11:05:23:151 -> 2048.00
11:05:23:161 -> 1977.00
11:05:23:172 -> 2087.00
11:05:23:183 -> 1949.00
11:05:23:193 -> 2092.00
11:05:23:203 -> 1947.00
11:05:23:214 -> 2052.00
11:05:23:224 -> 1962.00
11:05:23:234 -> 2071.00
11:05:23:245 -> 1917.00
11:05:23:255 -> 2088.00
11:05:23:265 -> 1899.00
11:05:23:276 -> 2062.00
11:05:23:286 -> 1996.00
11:05:23:297 -> 2033.00
11:05:23:307 -> 2044.00
11:05:23:317 -> 2024.00
11:05:23:328 -> 2034.00
11:05:23:338 -> 2012.00
11:05:23:378 -> 2072.00
11:05:23:382 -> 2006.00
11:05:23:382 -> 2087.00
11:05:23:382 -> 1988.00
11:05:23:389 -> 2088.00
11:05:23:400 -> 1981.00
11:05:23:410 -> 2039.00
11:05:23:420 -> 1920.00
11:05:23:431 -> 2082.00
11:05:23:441 -> 1906.00
11:05:23:451 -> 2099.00
11:05:23:462 -> 1974.00
11:05:23:472 -> 2080.00
11:05:23:482 -> 1985.00
11:05:23:493 -> 2081.00
11:05:23:503 -> 1922.00
11:05:23:514 -> 2086.00
11:05:23:524 -> 1991.00
11:05:23:534 -> 2051.00
11:05:23:549 -> 1974.00
11:05:23:555 -> 2082.00
11:05:23:565 -> 1911.00
11:05:23:575 -> 2054.00
11:05:23:586 -> 2000.00
11:05:23:596 -> 2038.00
11:05:23:606 -> 1988.00
11:05:23:617 -> 1959.00
11:05:23:627 -> 2046.00
11:05:23:637 -> 1969.00
11:05:23:648 -> 2050.00
11:05:23:658 -> 2012.00
11:05:23:669 -> 2079.00
11:05:23:679 -> 1972.00
11:05:23:689 -> 2101.00
11:05:23:699 -> 1983.00
11:05:23:710 -> 2090.00
11:05:23:721 -> 1953.00
11:05:23:731 -> 2075.00
11:05:23:741 -> 1962.00
11:05:23:751 -> 2094.00
11:05:23:762 -> 1949.00
11:05:23:773 -> 2091.00
11:05:23:783 -> 1958.00
11:05:23:793 -> 2059.00
11:05:23:804 -> 1917.00
11:05:23:814 -> 2092.00
11:05:23:824 -> 2046.00
11:05:23:835 -> 2024.00
11:05:23:845 -> 1922.00
11:05:23:855 -> 2045.00
11:05:23:866 -> 1988.00
11:05:23:886 -> 2022.00
11:05:23:887 -> 2020.00
11:05:23:917 -> 2008.00
11:05:23:897 -> 2037.00
11:05:23:907 -> 2024.00
11:05:23:928 -> 2043.00
11:05:23:939 -> 1992.00
11:05:23:948 -> 2083.00
11:05:23:959 -> 1998.00
11:05:23:969 -> 2074.00
11:05:23:979 -> 1974.00
11:05:23:991 -> 2084.00
11:05:24:001 -> 1967.00
11:05:24:011 -> 2083.00
11:05:24:022 -> 1982.00
11:05:24:032 -> 2111.00
11:05:24:042 -> 1991.00
11:05:24:052 -> 2086.00
11:05:24:063 -> 1964.00
11:05:24:073 -> 2080.00
11:05:24:083 -> 1978.00
11:05:24:094 -> 2069.00
11:05:24:104 -> 2081.00
11:05:24:114 -> 2065.00
11:05:24:125 -> 1904.00
11:05:24:135 -> 2061.00
11:05:24:145 -> 1965.00
11:05:24:156 -> 2029.00
11:05:24:166 -> 2028.00
11:05:24:180 -> 1987.00
11:05:24:187 -> 1994.00
11:05:24:197 -> 1993.00
11:05:24:207 -> 2039.00
11:05:24:218 -> 1990.00
11:05:24:228 -> 2078.00
11:05:24:239 -> 1986.00
11:05:24:249 -> 2091.00
11:05:24:259 -> 1938.00
11:05:24:295 -> 2095.00
11:05:24:295 -> 1986.00
11:05:24:295 -> 2042.00
11:05:24:301 -> 1952.00
11:05:24:311 -> 2069.00
11:05:24:321 -> 1955.00
11:05:24:332 -> 2093.00
11:05:24:342 -> 1966.00
11:05:24:352 -> 2075.00
11:05:24:363 -> 1975.00
11:05:24:378 -> 2108.00
11:05:24:383 -> 1940.00
11:05:24:409 -> 2070.00
11:05:24:410 -> 1966.00
11:05:24:414 -> 2082.00
11:05:24:424 -> 1950.00
11:05:24:435 -> 2055.00
11:05:24:445 -> 1933.00
11:05:24:455 -> 2045.00
11:05:24:466 -> 2004.00
11:05:24:476 -> 2020.00
11:05:24:486 -> 2017.00
11:05:24:496 -> 2028.00
11:05:24:512 -> 2000.00
11:05:24:517 -> 2008.00
11:05:24:527 -> 2053.00
11:05:24:538 -> 1999.00
11:05:24:548 -> 2084.00
11:05:24:558 -> 1990.00
11:05:24:569 -> 2097.00
11:05:24:580 -> 1974.00
11:05:24:590 -> 2074.00
11:05:24:600 -> 1972.00
11:05:24:610 -> 2077.00
11:05:24:620 -> 1912.00
11:05:24:633 -> 2100.00
11:05:24:652 -> 1959.00
11:05:24:654 -> 2032.00
11:05:24:662 -> 1929.00
11:05:24:672 -> 2127.00
11:05:24:682 -> 1991.00
11:05:24:693 -> 2096.00
11:05:24:703 -> 1991.00
11:05:24:713 -> 2066.00
11:05:24:724 -> 1985.00
11:05:24:734 -> 2065.00
11:05:24:744 -> 2037.00
11:05:24:755 -> 2054.00
11:05:24:767 -> 1931.00
11:05:24:777 -> 2009.00
11:05:24:788 -> 2047.00
11:05:24:798 -> 1989.00
11:05:24:808 -> 2093.00
11:05:24:819 -> 1993.00
11:05:24:829 -> 2094.00
11:05:24:840 -> 1967.00
11:05:24:850 -> 2069.00
11:05:24:860 -> 1969.00
11:05:24:870 -> 2084.00
11:05:24:881 -> 1973.00
11:05:24:892 -> 2084.00
11:05:24:901 -> 1972.00
11:05:24:925 -> 2091.00
11:05:24:925 -> 1981.00
11:05:24:935 -> 2061.00
11:05:24:943 -> 1969.00
11:05:24:954 -> 2072.00
11:05:24:963 -> 1951.00
11:05:24:974 -> 2084.00
11:05:24:984 -> 2074.00
11:05:24:994 -> 2072.00
11:05:25:005 -> 1901.00
11:05:25:015 -> 2056.00
11:05:25:025 -> 1999.00
11:05:25:036 -> 2046.00
11:05:25:046 -> 1996.00
11:05:25:056 -> 2020.00
11:05:25:066 -> 2002.00
11:05:25:077 -> 2015.00
11:05:25:087 -> 2067.00
11:05:25:098 -> 1993.00
11:05:25:108 -> 2060.00
11:05:25:118 -> 2012.00
11:05:25:130 -> 2052.00
11:05:25:140 -> 1983.00
11:05:25:151 -> 2084.00
11:05:25:161 -> 2010.00
11:05:25:171 -> 2069.00
11:05:25:183 -> 1978.00
11:05:25:193 -> 2092.00
11:05:25:203 -> 1949.00
11:05:25:214 -> 2111.00
11:05:25:224 -> 2089.00
11:05:25:234 -> 2050.00
11:05:25:245 -> 1928.00
11:05:25:255 -> 2052.00
11:05:25:265 -> 1962.00
11:05:25:276 -> 2045.00
11:05:25:287 -> 2004.00
11:05:25:298 -> 1986.00
11:05:25:308 -> 2077.00
11:05:25:318 -> 1977.00
11:05:25:330 -> 2080.00
11:05:25:339 -> 1992.00
11:05:25:349 -> 2089.00
11:05:25:359 -> 1934.00
11:05:25:370 -> 2091.00
11:05:25:380 -> 1956.00
11:05:25:390 -> 2084.00
11:05:25:401 -> 1960.00
11:05:25:411 -> 2082.00
11:05:25:465 -> 1977.00
11:05:25:465 -> 2097.00
11:05:25:465 -> 1985.00
11:05:25:465 -> 2069.00
11:05:25:465 -> 1989.00
11:05:25:472 -> 2097.00
11:05:25:485 -> 1966.00
11:05:25:493 -> 2067.00
11:05:25:504 -> 1967.00
11:05:25:514 -> 2070.00
11:05:25:524 -> 2082.00
11:05:25:534 -> 2032.00
11:05:25:545 -> 1890.00
11:05:25:555 -> 2026.00
11:05:25:565 -> 1996.00
11:05:25:576 -> 2056.00
11:05:25:586 -> 1989.00
11:05:25:596 -> 2020.00
11:05:25:607 -> 2044.00
11:05:25:617 -> 2016.00
11:05:25:628 -> 2045.00
11:05:25:638 -> 1963.00
11:05:25:648 -> 2066.00
11:05:25:658 -> 1980.00
11:05:25:669 -> 2099.00
11:05:25:679 -> 1952.00
11:05:25:689 -> 2071.00
11:05:25:700 -> 1961.00
11:05:25:710 -> 2070.00
11:05:25:720 -> 1939.00
11:05:25:731 -> 2099.00
11:05:25:741 -> 1946.00
11:05:25:751 -> 2036.00
11:05:25:762 -> 1989.00
11:05:25:772 -> 2095.00
11:05:25:782 -> 2004.00
11:05:25:792 -> 2098.00
11:05:25:803 -> 1969.00
11:05:25:813 -> 2110.00
11:05:25:823 -> 1961.00
11:05:25:834 -> 2080.00
11:05:25:844 -> 2071.00
11:05:25:854 -> 2045.00
11:05:25:867 -> 1921.00
11:05:25:875 -> 1996.00
11:05:25:885 -> 1986.00
11:05:25:895 -> 2043.00
11:05:25:905 -> 1987.00
11:05:25:916 -> 2028.00
11:05:25:926 -> 2024.00
11:05:25:937 -> 1958.00
11:05:25:947 -> 2007.00
11:05:25:957 -> 1972.00
11:05:25:986 -> 2068.00
11:05:25:986 -> 1980.00
11:05:25:988 -> 2088.00
11:05:25:999 -> 1983.00
11:05:26:009 -> 2092.00
11:05:26:019 -> 1977.00
11:05:26:029 -> 2059.00
11:05:26:040 -> 1965.00
11:05:26:050 -> 2068.00
11:05:26:060 -> 1977.00
11:05:26:071 -> 2080.00
11:05:26:081 -> 1955.00
11:05:26:091 -> 2075.00
11:05:26:102 -> 1972.00
11:05:26:112 -> 2085.00
11:05:26:122 -> 1937.00
11:05:26:133 -> 2060.00
11:05:26:143 -> 1985.00
11:05:26:154 -> 2076.00
11:05:26:164 -> 2087.00
11:05:26:174 -> 2038.00
11:05:26:184 -> 1878.00
11:05:26:195 -> 2053.00
11:05:26:205 -> 2004.00
11:05:26:215 -> 2052.00
11:05:26:226 -> 2007.00
11:05:26:236 -> 1998.00
11:05:26:247 -> 2035.00
11:05:26:257 -> 1999.00
11:05:26:267 -> 2034.00
11:05:26:302 -> 1985.00
11:05:26:302 -> 2072.00
11:05:26:302 -> 1987.00
11:05:26:308 -> 2105.00
11:05:26:319 -> 1985.00
11:05:26:329 -> 2085.00
11:05:26:339 -> 1961.00
11:05:26:350 -> 2083.00
11:05:26:360 -> 1942.00
11:05:26:370 -> 2080.00
11:05:26:381 -> 1958.00
11:05:26:391 -> 2064.00
11:05:26:401 -> 1974.00
11:05:26:412 -> 2145.00
11:05:26:422 -> 1999.00
11:05:26:432 -> 2040.00
11:05:26:443 -> 2001.00
11:05:26:453 -> 2077.00
11:05:26:463 -> 1995.00
11:05:26:474 -> 2066.00
11:05:26:484 -> 1972.00
11:05:26:499 -> 2041.00
11:05:26:505 -> 1937.00
11:05:26:515 -> 2052.00
11:05:26:526 -> 2010.00
11:05:26:536 -> 2007.00
11:05:26:546 -> 2026.00
11:05:26:556 -> 1992.00
11:05:26:566 -> 2039.00
11:05:26:577 -> 1986.00
11:05:26:587 -> 2021.00
11:05:26:597 -> 1969.00
11:05:26:608 -> 2081.00
11:05:26:618 -> 1990.00
11:05:26:629 -> 2056.00
11:05:26:639 -> 1989.00
11:05:26:654 -> 2089.00
11:05:26:660 -> 1948.00
11:05:26:670 -> 2047.00
11:05:26:680 -> 1948.00
11:05:26:690 -> 2073.00
11:05:26:701 -> 1968.00
11:05:26:711 -> 2111.00
11:05:26:722 -> 1982.00
11:05:26:732 -> 2103.00
11:05:26:742 -> 1972.00
11:05:26:752 -> 2081.00
11:05:26:763 -> 1976.00
11:05:26:773 -> 2081.00
11:05:26:784 -> 2066.00
11:05:26:794 -> 2057.00
11:05:26:805 -> 1911.00
11:05:26:814 -> 2085.00
11:05:26:825 -> 1989.00
11:05:26:835 -> 2036.00
11:05:26:845 -> 2017.00
11:05:26:856 -> 2039.00
11:05:26:867 -> 2032.00
11:05:26:877 -> 2034.00
11:05:26:887 -> 2049.00
11:05:26:898 -> 1985.00
11:05:26:908 -> 2081.00
11:05:26:918 -> 1977.00
11:05:26:929 -> 2091.00
11:05:26:939 -> 1964.00
11:05:26:950 -> 2090.00
11:05:26:960 -> 1940.00
11:05:26:970 -> 2073.00
11:05:26:981 -> 1954.00
11:05:26:991 -> 2076.00
11:05:27:020 -> 1977.00
11:05:27:021 -> 2098.00
11:05:27:022 -> 1961.00
11:05:27:033 -> 2085.00
11:05:27:043 -> 1980.00
11:05:27:053 -> 2080.00
11:05:27:063 -> 1962.00
11:05:27:074 -> 2096.00
11:05:27:084 -> 1904.00
11:05:27:094 -> 2038.00
11:05:27:105 -> 1987.00
11:05:27:115 -> 2036.00
11:05:27:125 -> 2023.00
11:05:27:136 -> 2016.00
11:05:27:146 -> 2012.00
11:05:27:156 -> 1998.00
11:05:27:167 -> 2045.00
11:05:27:177 -> 1967.00
11:05:27:187 -> 2075.00
11:05:27:198 -> 1975.00
11:05:27:208 -> 2050.00
11:05:27:218 -> 1995.00
11:05:27:229 -> 2110.00
11:05:27:239 -> 1972.00
11:05:27:249 -> 2048.00
11:05:27:284 -> 1939.00
11:05:27:285 -> 2092.00
11:05:27:285 -> 1962.00
11:05:27:290 -> 2068.00
11:05:27:300 -> 1990.00
11:05:27:311 -> 2074.00
11:05:27:321 -> 1970.00
11:05:27:331 -> 2092.00
11:05:27:342 -> 1980.00
11:05:27:352 -> 2102.00
11:05:27:362 -> 1997.00
11:05:27:373 -> 2091.00
11:05:27:383 -> 2031.00
11:05:27:394 -> 2047.00
11:05:27:404 -> 1918.00
11:05:27:414 -> 2058.00
11:05:27:428 -> 1985.00
11:05:27:435 -> 2063.00
11:05:27:445 -> 2005.00
11:05:27:456 -> 2033.00
11:05:27:466 -> 2026.00
11:05:27:476 -> 2001.00
11:05:27:486 -> 2057.00
11:05:27:497 -> 1900.00
11:05:27:508 -> 2088.00
11:05:27:518 -> 1988.00
11:05:27:544 -> 2094.00
11:05:27:544 -> 1949.00
11:05:27:549 -> 2089.00
11:05:27:559 -> 1940.00
11:05:27:570 -> 2067.00
11:05:27:581 -> 1970.00
11:05:27:590 -> 2079.00
11:05:27:601 -> 1962.00
11:05:27:611 -> 2118.00
11:05:27:621 -> 1963.00
11:05:27:632 -> 2071.00
11:05:27:642 -> 1984.00
11:05:27:652 -> 2053.00
11:05:27:663 -> 1949.00
11:05:27:673 -> 2072.00
11:05:27:683 -> 2045.00
11:05:27:694 -> 2048.00
11:05:27:704 -> 1915.00
11:05:27:714 -> 2056.00
11:05:27:728 -> 1952.00
11:05:27:735 -> 2022.00
11:05:27:745 -> 2003.00
11:05:27:755 -> 2032.00
11:05:27:765 -> 2038.00
11:05:27:776 -> 2016.00
11:05:27:786 -> 2036.00
11:05:27:796 -> 2003.00
11:05:27:807 -> 2044.00
11:05:27:817 -> 1972.00
11:05:27:827 -> 2045.00
11:05:27:838 -> 2001.00
11:05:27:848 -> 2078.00
11:05:27:863 -> 1979.00
11:05:27:869 -> 2098.00
11:05:27:879 -> 1947.00
11:05:27:889 -> 2074.00
11:05:27:900 -> 1926.00
11:05:27:910 -> 2094.00
11:05:27:920 -> 1943.00
11:05:27:930 -> 2080.00
11:05:27:941 -> 1941.00
11:05:27:951 -> 2107.00
11:05:27:961 -> 1977.00
11:05:27:972 -> 2096.00
11:05:27:982 -> 1974.00
11:05:27:992 -> 2086.00
11:05:28:003 -> 2020.00
11:05:28:013 -> 2050.00
11:05:28:023 -> 2055.00
11:05:28:034 -> 2066.00
11:05:28:060 -> 1924.00
11:05:28:061 -> 2040.00
11:05:28:065 -> 1997.00
11:05:28:075 -> 2032.00
11:05:28:085 -> 2015.00
11:05:28:096 -> 2023.00
11:05:28:106 -> 2026.00
11:05:28:116 -> 2029.00
11:05:28:127 -> 2047.00
11:05:28:137 -> 1973.00
11:05:28:147 -> 2064.00
11:05:28:158 -> 1976.00
11:05:28:196 -> 2084.00
11:05:28:197 -> 1994.00
11:05:28:197 -> 2078.00
11:05:28:199 -> 1978.00
11:05:28:209 -> 2070.00
11:05:28:220 -> 1960.00
11:05:28:230 -> 2096.00
11:05:28:240 -> 1974.00
11:05:28:250 -> 2057.00
11:05:28:261 -> 1992.00
11:05:28:271 -> 2100.00
11:05:28:281 -> 1958.00
11:05:28:292 -> 2110.00
11:05:28:302 -> 1964.00
11:05:28:313 -> 2085.00
11:05:28:323 -> 1976.00
11:05:28:333 -> 2057.00
11:05:28:343 -> 2047.00
11:05:28:353 -> 2042.00
11:05:28:364 -> 1879.00
11:05:28:374 -> 2048.00
11:05:28:384 -> 1996.00
11:05:28:395 -> 2023.00
11:05:28:405 -> 2037.00
11:05:28:416 -> 1987.00
11:05:28:428 -> 2074.00
11:05:28:437 -> 1992.00
11:05:28:447 -> 2045.00
11:05:28:457 -> 2004.00
11:05:28:467 -> 2055.00
11:05:28:477 -> 1987.00
11:05:28:488 -> 2052.00
11:05:28:498 -> 1962.00
11:05:28:508 -> 2093.00
11:05:28:519 -> 1955.00
11:05:28:529 -> 2065.00
11:05:28:539 -> 1964.00
11:05:28:550 -> 2090.00
11:05:28:575 -> 1960.00
11:05:28:576 -> 2094.00
11:05:28:581 -> 1970.00
11:05:28:591 -> 2095.00
11:05:28:601 -> 1986.00
11:05:28:612 -> 2119.00
11:05:28:622 -> 1943.00
11:05:28:632 -> 2097.00
11:05:28:643 -> 1979.00
11:05:28:653 -> 2044.00
11:05:28:663 -> 2008.00
11:05:28:674 -> 2054.00
11:05:28:684 -> 1932.00
11:05:28:694 -> 2038.00
11:05:28:704 -> 1973.00
11:05:28:715 -> 2031.00
11:05:28:725 -> 2014.00
11:05:28:735 -> 2039.00
11:05:28:748 -> 2019.00
11:05:28:756 -> 2021.00
11:05:28:766 -> 2049.00
11:05:28:777 -> 1975.00
11:05:28:787 -> 2053.00
11:05:28:797 -> 1976.00
11:05:28:808 -> 2077.00
11:05:28:818 -> 1996.00
11:05:28:828 -> 2037.00
11:05:28:839 -> 1975.00
11:05:28:849 -> 2106.00
11:05:28:859 -> 1960.00
11:05:28:869 -> 2075.00
11:05:28:880 -> 1952.00
11:05:28:890 -> 2078.00
11:05:28:901 -> 1974.00
11:05:28:911 -> 2121.00
11:05:28:921 -> 1952.00
11:05:28:931 -> 2070.00
11:05:28:941 -> 1989.00
11:05:28:952 -> 2092.00
11:05:28:962 -> 1982.00
11:05:28:972 -> 2079.00
11:05:28:983 -> 1991.00
11:05:28:993 -> 2039.00
11:05:29:003 -> 1980.00
11:05:29:013 -> 2068.00
11:05:29:024 -> 1902.00
11:05:29:034 -> 2051.00
11:05:29:044 -> 1999.00
11:05:29:055 -> 2024.00
11:05:29:065 -> 1999.00
11:05:29:114 -> 2014.00
11:05:29:121 -> 2049.00
11:05:29:121 -> 2001.00
11:05:29:121 -> 2020.00
11:05:29:121 -> 2006.00
11:05:29:127 -> 2091.00
11:05:29:137 -> 1978.00
11:05:29:147 -> 2054.00
11:05:29:158 -> 1960.00
11:05:29:168 -> 2104.00
11:05:29:179 -> 1980.00
11:05:29:189 -> 2071.00
11:05:29:199 -> 1959.00
11:05:29:209 -> 2106.00
11:05:29:220 -> 1936.00
11:05:29:235 -> 2057.00
11:05:29:240 -> 1985.00
11:05:29:251 -> 2110.00
11:05:29:261 -> 1959.00
11:05:29:271 -> 2111.00
11:05:29:282 -> 1989.00
11:05:29:292 -> 2094.00
11:05:29:302 -> 1983.00
11:05:29:313 -> 2059.00
11:05:29:323 -> 2067.00
11:05:29:333 -> 2077.00
11:05:29:343 -> 1903.00
11:05:29:354 -> 2063.00
11:05:29:364 -> 1961.00
11:05:29:374 -> 2050.00
11:05:29:385 -> 1987.00
11:05:29:395 -> 2007.00
11:05:29:405 -> 2043.00
11:05:29:415 -> 2025.00
11:05:29:426 -> 2029.00
11:05:29:436 -> 2013.00
11:05:29:446 -> 2058.00
11:05:29:457 -> 2003.00
11:05:29:467 -> 2055.00
11:05:29:477 -> 1994.00
11:05:29:488 -> 2100.00
11:05:29:498 -> 1975.00
11:05:29:508 -> 2100.00
11:05:29:518 -> 1951.00
11:05:29:529 -> 2109.00
11:05:29:539 -> 1937.00
11:05:29:549 -> 2093.00
11:05:29:560 -> 1933.00
11:05:29:570 -> 2112.00
11:05:29:580 -> 1983.00
11:05:29:591 -> 2097.00
11:05:29:601 -> 1984.00
11:05:29:611 -> 2088.00
11:05:29:634 -> 1985.00
11:05:29:634 -> 2085.00
11:05:29:643 -> 1967.00
11:05:29:652 -> 2083.00
11:05:29:663 -> 1990.00
11:05:29:673 -> 2063.00
11:05:29:684 -> 1894.00
11:05:29:694 -> 2025.00
11:05:29:704 -> 1995.00
11:05:29:714 -> 2046.00
11:05:29:725 -> 2013.00
11:05:29:735 -> 1992.00
11:05:29:745 -> 2019.00
11:05:29:756 -> 1991.00
11:05:29:766 -> 2050.00
11:05:29:781 -> 1990.00
11:05:29:787 -> 2055.00
11:05:29:797 -> 1978.00
11:05:29:807 -> 2083.00
11:05:29:818 -> 1936.00
11:05:29:828 -> 2087.00
11:05:29:838 -> 1968.00
11:05:29:849 -> 2102.00
11:05:29:859 -> 1940.00
11:05:29:869 -> 2105.00
11:05:29:880 -> 1927.00
11:05:29:891 -> 2065.00
11:05:29:900 -> 1984.00
11:05:29:911 -> 2114.00
11:05:29:921 -> 1972.00
11:05:29:931 -> 2106.00
11:05:29:942 -> 1985.00
11:05:29:952 -> 2090.00
11:05:29:962 -> 1985.00
11:05:29:973 -> 2050.00
11:05:29:983 -> 1993.00
11:05:30:014 -> 2037.00
11:05:30:015 -> 1913.00
11:05:30:015 -> 2050.00
11:05:30:025 -> 1978.00
11:05:30:034 -> 2024.00
11:05:30:045 -> 2009.00
11:05:30:055 -> 2016.00
11:05:30:066 -> 2051.00
11:05:30:076 -> 1956.00
11:05:30:091 -> 2039.00
11:05:30:101 -> 1977.00
11:05:30:111 -> 2071.00
11:05:30:122 -> 1980.00
11:05:30:132 -> 2082.00
11:05:30:155 -> 2009.00
11:05:30:156 -> 2046.00
11:05:30:163 -> 1900.00
11:05:30:173 -> 2008.00
11:05:30:184 -> 1966.00
11:05:30:194 -> 2038.00
11:05:30:204 -> 2000.00
11:05:30:215 -> 2027.00
11:05:30:225 -> 2035.00
11:05:30:235 -> 1995.00
11:05:30:246 -> 2054.00
11:05:30:256 -> 2000.00
11:05:30:266 -> 2092.00
11:05:30:277 -> 1964.00
11:05:30:287 -> 2068.00
11:05:30:297 -> 1963.00
11:05:30:308 -> 2090.00
11:05:30:318 -> 1958.00
11:05:30:328 -> 2104.00
11:05:30:342 -> 1965.00
11:05:30:349 -> 2092.00
11:05:30:359 -> 1939.00
11:05:30:370 -> 2083.00
11:05:30:380 -> 1968.00
11:05:30:390 -> 2103.00
11:05:30:401 -> 1977.00
11:05:30:411 -> 2101.00
11:05:30:421 -> 1986.00
11:05:30:431 -> 2117.00
11:05:30:442 -> 1953.00
11:05:30:452 -> 2109.00
11:05:30:462 -> 1953.00
11:05:30:473 -> 2086.00
11:05:30:483 -> 1940.00
11:05:30:493 -> 2064.00
11:05:30:504 -> 1950.00
11:05:30:514 -> 2035.00
11:05:30:525 -> 2009.00
11:05:30:535 -> 2033.00
11:05:30:545 -> 2053.00
11:05:30:555 -> 1977.00
11:05:30:566 -> 2056.00
11:05:30:576 -> 2008.00
11:05:30:586 -> 2061.00
11:05:30:601 -> 1971.00
11:05:30:607 -> 2058.00
11:05:30:617 -> 1974.00
11:05:30:627 -> 2072.00
11:05:30:638 -> 1982.00
11:05:30:648 -> 2059.00
11:05:30:675 -> 1967.00
11:05:30:676 -> 2093.00
11:05:30:679 -> 1962.00
11:05:30:689 -> 2108.00
11:05:30:700 -> 1969.00
11:05:30:710 -> 2072.00
11:05:30:720 -> 1985.00
11:05:30:731 -> 2107.00
11:05:30:741 -> 1973.00
11:05:30:751 -> 2079.00
11:05:30:761 -> 1951.00
11:05:30:772 -> 2089.00
11:05:30:782 -> 1999.00
11:05:30:792 -> 2079.00
11:05:30:803 -> 2077.00
11:05:30:813 -> 2050.00
11:05:30:823 -> 1899.00
11:05:30:854 -> 2008.00
11:05:30:854 -> 1986.00
11:05:30:854 -> 2044.00
11:05:30:865 -> 2007.00
11:05:30:875 -> 2022.00
11:05:30:885 -> 2021.00
11:05:30:899 -> 2006.00
11:05:30:906 -> 2023.00
11:05:30:917 -> 1981.00
11:05:30:927 -> 2071.00
11:05:30:937 -> 1993.00
11:05:30:947 -> 2090.00
11:05:30:958 -> 1950.00
11:05:30:968 -> 2071.00
11:05:30:978 -> 1958.00
11:05:30:988 -> 2099.00
11:05:30:999 -> 1974.00
11:05:31:009 -> 2080.00
11:05:31:022 -> 1961.00
11:05:31:029 -> 2098.00
11:05:31:040 -> 1992.00
11:05:31:050 -> 2046.00
11:05:31:060 -> 1950.00
11:05:31:071 -> 2102.00
11:05:31:081 -> 1990.00
11:05:31:091 -> 2077.00
11:05:31:102 -> 1987.00
11:05:31:112 -> 2106.00
11:05:31:122 -> 1983.00
11:05:31:132 -> 2065.00
11:05:31:143 -> 1976.00
11:05:31:153 -> 2044.00
11:05:31:164 -> 1950.00
11:05:31:192 -> 2044.00
11:05:31:193 -> 2011.00
11:05:31:195 -> 2017.00
11:05:31:205 -> 2015.00
11:05:31:215 -> 2020.00
11:05:31:225 -> 2006.00
11:05:31:236 -> 2024.00
11:05:31:246 -> 2064.00
11:05:31:257 -> 1983.00
11:05:31:267 -> 2051.00
11:05:31:277 -> 1980.00
11:05:31:288 -> 2069.00
11:05:31:298 -> 1975.00
11:05:31:308 -> 2053.00
11:05:31:319 -> 1951.00
11:05:31:329 -> 2108.00
11:05:31:339 -> 1965.00
11:05:31:350 -> 2087.00
11:05:31:360 -> 1935.00
11:05:31:370 -> 2119.00
11:05:31:381 -> 1943.00
11:05:31:391 -> 2088.00
11:05:31:401 -> 1976.00
11:05:31:412 -> 2066.00
11:05:31:422 -> 1977.00
11:05:31:432 -> 2079.00
11:05:31:443 -> 1915.00
11:05:31:453 -> 2038.00
11:05:31:463 -> 2004.00
11:05:31:473 -> 2016.00
11:05:31:484 -> 2045.00
11:05:31:494 -> 2008.00
11:05:31:504 -> 2038.00
11:05:31:515 -> 1980.00
11:05:31:525 -> 2060.00
11:05:31:536 -> 1944.00
11:05:31:546 -> 2068.00
11:05:31:556 -> 1993.00
11:05:31:566 -> 2097.00
11:05:31:577 -> 1977.00
11:05:31:587 -> 2077.00
11:05:31:597 -> 1957.00
11:05:31:608 -> 2084.00
11:05:31:618 -> 1959.00
11:05:31:629 -> 2071.00
11:05:31:639 -> 1968.00
11:05:31:649 -> 2103.00
11:05:31:660 -> 1986.00
11:05:31:670 -> 2103.00
11:05:31:680 -> 1979.00
11:05:31:691 -> 2090.00
11:05:31:707 -> 2017.00
11:05:31:711 -> 2064.00
11:05:31:721 -> 2000.00
11:05:31:732 -> 2061.00
11:05:31:742 -> 1977.00
11:05:31:752 -> 2046.00
11:05:31:762 -> 1940.00
11:05:31:773 -> 2034.00
11:05:31:783 -> 2031.00
11:05:31:793 -> 2005.00
11:05:31:804 -> 2017.00
11:05:31:814 -> 1999.00
11:05:31:824 -> 2055.00
11:05:31:835 -> 1970.00
11:05:31:845 -> 1996.00
11:05:31:856 -> 1959.00
11:05:31:866 -> 2087.00
11:05:31:900 -> 1999.00
11:05:31:901 -> 2075.00
11:05:31:901 -> 1987.00
11:05:31:907 -> 2111.00
11:05:31:917 -> 1973.00
11:05:31:928 -> 2066.00
11:05:31:938 -> 1899.00
11:05:31:951 -> 2067.00
11:05:31:959 -> 1973.00
11:05:31:969 -> 2094.00
11:05:31:979 -> 1986.00
11:05:31:990 -> 2071.00
11:05:32:000 -> 1993.00
11:05:32:011 -> 2067.00
11:05:32:021 -> 2010.00
11:05:32:031 -> 2039.00
11:05:32:041 -> 1980.00
11:05:32:052 -> 2079.00
11:05:32:066 -> 1967.00
11:05:32:072 -> 2056.00
11:05:32:083 -> 1966.00
11:05:32:093 -> 2036.00
11:05:32:103 -> 2002.00
11:05:32:114 -> 2016.00
11:05:32:124 -> 2028.00
11:05:32:134 -> 1959.00
11:05:32:144 -> 2025.00
11:05:32:155 -> 1999.00
11:05:32:166 -> 2081.00
11:05:32:176 -> 1956.00
11:05:32:186 -> 2091.00
11:05:32:196 -> 1989.00
11:05:32:221 -> 2062.00
11:05:32:222 -> 1961.00
11:05:32:227 -> 2082.00
11:05:32:238 -> 1961.00
11:05:32:248 -> 2086.00
11:05:32:258 -> 1918.00
11:05:32:269 -> 2061.00
11:05:32:279 -> 1957.00
11:05:32:289 -> 2052.00
11:05:32:300 -> 1991.00
11:05:32:310 -> 2084.00
11:05:32:321 -> 1994.00
11:05:32:330 -> 2065.00
11:05:32:341 -> 1956.00
11:05:32:351 -> 2112.00
11:05:32:361 -> 1990.00
11:05:32:372 -> 2076.00
11:05:32:382 -> 1942.00
11:05:32:392 -> 2047.00
11:05:32:404 -> 1965.00
11:05:32:413 -> 2042.00
11:05:32:424 -> 1995.00
11:05:32:434 -> 2014.00
11:05:32:444 -> 2049.00
11:05:32:454 -> 2004.00
11:05:32:465 -> 2030.00
11:05:32:475 -> 2006.00
11:05:32:485 -> 2067.00
11:05:32:496 -> 1994.00
11:05:32:506 -> 2075.00
11:05:32:516 -> 1979.00
11:05:32:527 -> 2095.00
11:05:32:537 -> 1951.00
11:05:32:547 -> 2067.00
11:05:32:558 -> 1951.00
11:05:32:568 -> 2081.00
11:05:32:579 -> 1952.00
11:05:32:589 -> 2081.00
11:05:32:599 -> 1971.00
11:05:32:609 -> 2078.00
11:05:32:620 -> 2007.00
11:05:32:632 -> 2057.00
11:05:32:640 -> 1992.00
11:05:32:651 -> 2072.00
11:05:32:661 -> 1986.00
11:05:32:671 -> 2047.00
11:05:32:681 -> 1964.00
11:05:32:692 -> 2053.00
11:05:32:702 -> 1927.00
11:05:32:712 -> 2056.00
11:05:32:737 -> 1987.00
11:05:32:738 -> 2047.00
11:05:32:744 -> 2020.00
11:05:32:754 -> 2019.00
11:05:32:794 -> 2002.00
11:05:32:794 -> 1991.00
11:05:32:794 -> 2063.00
11:05:32:795 -> 1977.00
11:05:32:805 -> 2059.00
11:05:32:816 -> 1979.00
11:05:32:826 -> 2068.00
11:05:32:836 -> 1970.00
11:05:32:847 -> 2094.00
11:05:32:857 -> 1996.00
11:05:32:867 -> 2085.00
11:05:32:878 -> 1918.00
11:05:32:888 -> 2088.00
11:05:32:898 -> 1952.00
11:05:32:912 -> 2121.00
11:05:32:919 -> 1921.00
11:05:32:929 -> 2085.00
11:05:32:940 -> 1953.00
11:05:32:950 -> 2088.00
11:05:32:960 -> 2000.00
11:05:32:971 -> 2081.00
11:05:32:981 -> 1955.00
11:05:32:991 -> 2084.00
11:05:33:002 -> 2002.00
11:05:33:012 -> 2070.00
11:05:33:022 -> 1894.00
11:05:33:033 -> 2031.00
11:05:33:043 -> 1978.00
11:05:33:053 -> 2041.00
11:05:33:063 -> 1975.00
11:05:33:074 -> 2043.00
11:05:33:088 -> 2014.00
11:05:33:094 -> 1994.00
11:05:33:105 -> 2059.00
11:05:33:115 -> 2007.00
11:05:33:125 -> 2078.00
11:05:33:136 -> 1973.00
11:05:33:146 -> 2104.00
11:05:33:156 -> 1972.00
11:05:33:166 -> 2050.00
11:05:33:177 -> 1962.00
11:05:33:187 -> 2086.00
