11:10:01:022 -> 2052.00
11:10:01:033 -> 1980.00
11:10:01:043 -> 1990.00
11:10:01:054 -> 2083.00
11:10:01:064 -> 2013.00
11:10:01:075 -> 2079.00
11:10:01:085 -> 1998.00
11:10:01:095 -> 2367.00
11:10:01:106 -> 1944.00
11:10:01:117 -> 2091.00
11:10:01:128 -> 1965.00
11:10:01:138 -> 2125.00
11:10:01:149 -> 1944.00
11:10:01:160 -> 2062.00
11:10:01:170 -> 1912.00
11:10:01:180 -> 2051.00
11:10:01:210 -> 1980.00
11:10:01:211 -> 2050.00
11:10:01:211 -> 1989.00
11:10:01:221 -> 2068.00
11:10:01:232 -> 2006.00
11:10:01:242 -> 2012.00
11:10:01:252 -> 2000.00
11:10:01:263 -> 2026.00
11:10:01:273 -> 2013.00
11:10:01:283 -> 1983.00
11:10:01:294 -> 2060.00
11:10:01:304 -> 1976.00
11:10:01:315 -> 2074.00
11:10:01:325 -> 1972.00
11:10:01:335 -> 2090.00
11:10:01:345 -> 1965.00
11:10:01:356 -> 2058.00
11:10:01:366 -> 1951.00
11:10:01:377 -> 2063.00
11:10:01:387 -> 1969.00
11:10:01:397 -> 2120.00
11:10:01:408 -> 1967.00
11:10:01:418 -> 2103.00
11:10:01:428 -> 1964.00
11:10:01:439 -> 2095.00
11:10:01:449 -> 1939.00
11:10:01:459 -> 2097.00
11:10:01:470 -> 1938.00
11:10:01:480 -> 2059.00
11:10:01:491 -> 1962.00
11:10:01:501 -> 2072.00
11:10:01:511 -> 1994.00
11:10:01:521 -> 2080.00
11:10:01:532 -> 1992.00
11:10:01:542 -> 2053.00
11:10:01:552 -> 2008.00
11:10:01:563 -> 1983.00
11:10:01:573 -> 2015.00
11:10:01:583 -> 1986.00
11:10:01:594 -> 2040.00
11:10:01:604 -> 1987.00
11:10:01:614 -> 2081.00
11:10:01:640 -> 2009.00
11:10:01:640 -> 2072.00
11:10:01:645 -> 1986.00
11:10:01:655 -> 2073.00
11:10:01:666 -> 1954.00
11:10:01:676 -> 2065.00
11:10:01:686 -> 1942.00
11:10:01:696 -> 2085.00
11:10:01:707 -> 1960.00
11:10:01:727 -> 2081.00
11:10:01:728 -> 1963.00
11:10:01:738 -> 2134.00
11:10:01:748 -> 1973.00
11:10:01:759 -> 2107.00
11:10:01:769 -> 1917.00
11:10:01:779 -> 2108.00
11:10:01:789 -> 1879.00
11:10:01:799 -> 2091.00
11:10:01:813 -> 1873.00
11:10:01:820 -> 2128.00
11:10:01:830 -> 1903.00
11:10:01:841 -> 2081.00
11:10:01:851 -> 2046.00
11:10:01:862 -> 2036.00
11:10:01:872 -> 2022.00
11:10:01:882 -> 2119.00
11:10:01:893 -> 2016.00
11:10:01:903 -> 1926.00
11:10:01:913 -> 1977.00
11:10:01:923 -> 1885.00
11:10:01:934 -> 2117.00
11:10:01:944 -> 1931.00
11:10:01:955 -> 2064.00
11:10:01:965 -> 2008.00
11:10:01:975 -> 2109.00
11:10:01:986 -> 1900.00
11:10:01:996 -> 2115.00
11:10:02:006 -> 1773.00
11:10:02:016 -> 2086.00
11:10:02:027 -> 1873.00
11:10:02:037 -> 2078.00
11:10:02:047 -> 1912.00
11:10:02:058 -> 2275.00
11:10:02:068 -> 1874.00
11:10:02:083 -> 2052.00
11:10:02:089 -> 1879.00
11:10:02:099 -> 2051.00
11:10:02:110 -> 1929.00
11:10:02:127 -> 2021.00
11:10:02:130 -> 2110.00
11:10:02:141 -> 2071.00
11:10:02:151 -> 2063.00
11:10:02:162 -> 2093.00
11:10:02:172 -> 2031.00
11:10:02:182 -> 1888.00
11:10:02:192 -> 2090.00
11:10:02:203 -> 2046.00
11:10:02:213 -> 2033.00
11:10:02:223 -> 1953.00
11:10:02:243 -> 2107.00
11:10:02:244 -> 1947.00
11:10:02:254 -> 2123.00
11:10:02:264 -> 1968.00
11:10:02:274 -> 2247.00
11:10:02:285 -> 1915.00
11:10:02:295 -> 2066.00
11:10:02:306 -> 1982.00
11:10:02:316 -> 2052.00
11:10:02:326 -> 2064.00
11:10:02:337 -> 2127.00
11:10:02:349 -> 1947.00
11:10:02:358 -> 2064.00
11:10:02:368 -> 1890.00
11:10:02:390 -> 2100.00
11:10:02:399 -> 1993.00
11:10:02:399 -> 2138.00
11:10:02:409 -> 1904.00
11:10:02:419 -> 2078.00
11:10:02:430 -> 1900.00
11:10:02:440 -> 2003.00
11:10:02:450 -> 1942.00
11:10:02:461 -> 2043.00
11:10:02:471 -> 1926.00
11:10:02:481 -> 2127.00
11:10:02:491 -> 1980.00
11:10:02:502 -> 1941.00
11:10:02:512 -> 1948.00
11:10:02:522 -> 2152.00
11:10:02:533 -> 1980.00
11:10:02:543 -> 2061.00
11:10:02:553 -> 2057.00
11:10:02:564 -> 2013.00
11:10:02:574 -> 2092.00
11:10:02:584 -> 1981.00
11:10:02:596 -> 2130.00
11:10:02:605 -> 1896.00
11:10:02:616 -> 2133.00
11:10:02:626 -> 1917.00
11:10:02:636 -> 2055.00
11:10:02:647 -> 1928.00
11:10:02:657 -> 2098.00
11:10:02:667 -> 1959.00
11:10:02:678 -> 2073.00
11:10:02:689 -> 2005.00
11:10:02:698 -> 2109.00
11:10:02:709 -> 1939.00
11:10:02:719 -> 2069.00
11:10:02:729 -> 1976.00
11:10:02:741 -> 2135.00
11:10:02:757 -> 1973.00
11:10:02:761 -> 2060.00
11:10:02:772 -> 2006.00
11:10:02:786 -> 2069.00
11:10:02:793 -> 2072.00
11:10:02:804 -> 1951.00
11:10:02:814 -> 2101.00
11:10:02:824 -> 2004.00
11:10:02:835 -> 2128.00
11:10:02:845 -> 1924.00
11:10:02:855 -> 2098.00
11:10:02:866 -> 1938.00
11:10:02:876 -> 2176.00
11:10:02:887 -> 1935.00
11:10:02:897 -> 2004.00
11:10:02:907 -> 2058.00
11:10:02:918 -> 2040.00
11:10:02:928 -> 1967.00
11:10:02:939 -> 1948.00
11:10:02:949 -> 2019.00
11:10:02:959 -> 2065.00
11:10:02:969 -> 1893.00
11:10:02:980 -> 2015.00
11:10:02:993 -> 1992.00
11:10:03:000 -> 2026.00
11:10:03:010 -> 2098.00
11:10:03:021 -> 2036.00
11:10:03:031 -> 1987.00
11:10:03:041 -> 2094.00
11:10:03:052 -> 2018.00
11:10:03:062 -> 2055.00
11:10:03:072 -> 2034.00
11:10:03:084 -> 2039.00
11:10:03:093 -> 2041.00
11:10:03:103 -> 2005.00
11:10:03:114 -> 2058.00
11:10:03:124 -> 1907.00
11:10:03:134 -> 2125.00
11:10:03:144 -> 1979.00
11:10:03:155 -> 2125.00
11:10:03:165 -> 1970.00
11:10:03:175 -> 2055.00
11:10:03:186 -> 1945.00
11:10:03:196 -> 2078.00
11:10:03:210 -> 1921.00
11:10:03:217 -> 2082.00
11:10:03:227 -> 1994.00
11:10:03:237 -> 2099.00
11:10:03:248 -> 1973.00
11:10:03:273 -> 2152.00
11:10:03:274 -> 1958.00
11:10:03:279 -> 2142.00
11:10:03:289 -> 1910.00
11:10:03:299 -> 2137.00
11:10:03:309 -> 1922.00
11:10:03:320 -> 2099.00
11:10:03:330 -> 1957.00
11:10:03:341 -> 2098.00
11:10:03:351 -> 1985.00
11:10:03:361 -> 2078.00
11:10:03:372 -> 2007.00
11:10:03:382 -> 2075.00
11:10:03:392 -> 2012.00
11:10:03:402 -> 2017.00
11:10:03:413 -> 2006.00
11:10:03:424 -> 2021.00
11:10:03:433 -> 2013.00
11:10:03:444 -> 1996.00
11:10:03:454 -> 2078.00
11:10:03:464 -> 1981.00
11:10:03:474 -> 2107.00
11:10:03:485 -> 1979.00
11:10:03:495 -> 2101.00
11:10:03:505 -> 1950.00
11:10:03:516 -> 2116.00
11:10:03:530 -> 1963.00
11:10:03:548 -> 2087.00
11:10:03:548 -> 1932.00
11:10:03:557 -> 2116.00
11:10:03:567 -> 1961.00
11:10:03:578 -> 2093.00
11:10:03:588 -> 1981.00
11:10:03:598 -> 2130.00
11:10:03:609 -> 1916.00
11:10:03:619 -> 2124.00
11:10:03:629 -> 1878.00
11:10:03:640 -> 2084.00
11:10:03:650 -> 1895.00
11:10:03:660 -> 2068.00
11:10:03:671 -> 1962.00
11:10:03:681 -> 2065.00
11:10:03:691 -> 1981.00
11:10:03:701 -> 2100.00
11:10:03:712 -> 1986.00
11:10:03:722 -> 2082.00
11:10:03:732 -> 1985.00
11:10:03:743 -> 2041.00
11:10:03:753 -> 2014.00
11:10:03:763 -> 2023.00
11:10:03:790 -> 2035.00
11:10:03:791 -> 2037.00
11:10:03:794 -> 2090.00
11:10:03:805 -> 1987.00
11:10:03:815 -> 2097.00
11:10:03:827 -> 1968.00
11:10:03:836 -> 2085.00
11:10:03:846 -> 1928.00
11:10:03:856 -> 2102.00
11:10:03:867 -> 1946.00
11:10:03:877 -> 2111.00
11:10:03:888 -> 1934.00
11:10:03:898 -> 2116.00
11:10:03:908 -> 1984.00
11:10:03:918 -> 2151.00
11:10:03:929 -> 1921.00
11:10:03:939 -> 2121.00
11:10:03:949 -> 1910.00
11:10:03:959 -> 2120.00
11:10:03:970 -> 1911.00
11:10:03:980 -> 2063.00
11:10:03:990 -> 1932.00
11:10:04:002 -> 2103.00
11:10:04:011 -> 1956.00
11:10:04:021 -> 2077.00
11:10:04:031 -> 1975.00
11:10:04:042 -> 2079.00
11:10:04:052 -> 1967.00
11:10:04:062 -> 2066.00
11:10:04:073 -> 2002.00
11:10:04:083 -> 2038.00
11:10:04:094 -> 1993.00
11:10:04:104 -> 1986.00
11:10:04:114 -> 2033.00
11:10:04:124 -> 1993.00
11:10:04:134 -> 2135.00
11:10:04:145 -> 1984.00
11:10:04:155 -> 2090.00
11:10:04:165 -> 1964.00
11:10:04:176 -> 2091.00
11:10:04:186 -> 1923.00
11:10:04:196 -> 2094.00
11:10:04:207 -> 1943.00
11:10:04:217 -> 2081.00
11:10:04:227 -> 1954.00
11:10:04:238 -> 2125.00
11:10:04:248 -> 1953.00
11:10:04:258 -> 2149.00
11:10:04:269 -> 1924.00
11:10:04:279 -> 2141.00
11:10:04:306 -> 1888.00
11:10:04:307 -> 2080.00
11:10:04:310 -> 1889.00
11:10:04:320 -> 2084.00
11:10:04:331 -> 1961.00
11:10:04:341 -> 2111.00
11:10:04:352 -> 1980.00
11:10:04:362 -> 2098.00
11:10:04:372 -> 1974.00
11:10:04:382 -> 2040.00
11:10:04:393 -> 2017.00
11:10:04:403 -> 2057.00
11:10:04:413 -> 2032.00
11:10:04:424 -> 1998.00
11:10:04:434 -> 2066.00
11:10:04:444 -> 1991.00
11:10:04:455 -> 2109.00
11:10:04:465 -> 1945.00
11:10:04:475 -> 2101.00
11:10:04:486 -> 1961.00
11:10:04:496 -> 2080.00
11:10:04:506 -> 1949.00
11:10:04:517 -> 2095.00
11:10:04:527 -> 1961.00
11:10:04:537 -> 2077.00
11:10:04:548 -> 1949.00
11:10:04:558 -> 2140.00
11:10:04:568 -> 1933.00
11:10:04:579 -> 2112.00
11:10:04:590 -> 1915.00
11:10:04:610 -> 1926.00
11:10:04:620 -> 2094.00
11:10:04:600 -> 2104.00
11:10:04:631 -> 1960.00
11:10:04:644 -> 2107.00
11:10:04:672 -> 1981.00
11:10:04:672 -> 2075.00
11:10:04:672 -> 1977.00
11:10:04:682 -> 2073.00
11:10:04:692 -> 1987.00
11:10:04:703 -> 2055.00
11:10:04:713 -> 1997.00
11:10:04:723 -> 1980.00
11:10:04:734 -> 2040.00
11:10:04:744 -> 1992.00
11:10:04:754 -> 2060.00
11:10:04:764 -> 1995.00
11:10:04:775 -> 2110.00
11:10:04:785 -> 1979.00
11:10:04:795 -> 2123.00
11:10:04:828 -> 1933.00
11:10:04:829 -> 2079.00
11:10:04:829 -> 1943.00
11:10:04:837 -> 2069.00
11:10:04:847 -> 1944.00
11:10:04:857 -> 2121.00
11:10:04:867 -> 1932.00
11:10:04:878 -> 2168.00
11:10:04:888 -> 1933.00
11:10:04:898 -> 2156.00
11:10:04:909 -> 1931.00
11:10:04:919 -> 2110.00
11:10:04:929 -> 1892.00
11:10:04:940 -> 2104.00
11:10:04:950 -> 1953.00
11:10:04:961 -> 2066.00
11:10:04:971 -> 1947.00
11:10:04:981 -> 2119.00
11:10:04:992 -> 1999.00
11:10:05:002 -> 2055.00
11:10:05:012 -> 2005.00
11:10:05:026 -> 2035.00
11:10:05:033 -> 2041.00
11:10:05:043 -> 2000.00
11:10:05:053 -> 2032.00
11:10:05:064 -> 1993.00
11:10:05:074 -> 2050.00
11:10:05:085 -> 2013.00
11:10:05:095 -> 2084.00
11:10:05:105 -> 1891.00
11:10:05:116 -> 2063.00
11:10:05:127 -> 2002.00
11:10:05:137 -> 2116.00
11:10:05:147 -> 1925.00
11:10:05:157 -> 2051.00
11:10:05:168 -> 2025.00
11:10:05:178 -> 2133.00
11:10:05:188 -> 1928.00
11:10:05:198 -> 2190.00
11:10:05:209 -> 1984.00
11:10:05:220 -> 1967.00
11:10:05:229 -> 2017.00
11:10:05:240 -> 2013.00
11:10:05:250 -> 1912.00
11:10:05:260 -> 2097.00
11:10:05:271 -> 1996.00
11:10:05:281 -> 2093.00
11:10:05:292 -> 1890.00
11:10:05:302 -> 1928.00
11:10:05:312 -> 2153.00
11:10:05:323 -> 2111.00
11:10:05:347 -> 2200.00
11:10:05:348 -> 1974.00
11:10:05:354 -> 2037.00
11:10:05:364 -> 1892.00
11:10:05:375 -> 2070.00
11:10:05:385 -> 1953.00
11:10:05:395 -> 2106.00
11:10:05:405 -> 2003.00
11:10:05:416 -> 2082.00
11:10:05:426 -> 1930.00
11:10:05:436 -> 2075.00
11:10:05:448 -> 2067.00
11:10:05:457 -> 2144.00
11:10:05:467 -> 1958.00
11:10:05:478 -> 2134.00
11:10:05:488 -> 1942.00
11:10:05:498 -> 2099.00
11:10:05:508 -> 1877.00
11:10:05:519 -> 2046.00
11:10:05:529 -> 2088.00
11:10:05:539 -> 2075.00
11:10:05:550 -> 1903.00
11:10:05:560 -> 2065.00
11:10:05:570 -> 1992.00
11:10:05:581 -> 2065.00
11:10:05:591 -> 1993.00
11:10:05:601 -> 2023.00
11:10:05:612 -> 2112.00
11:10:05:622 -> 2045.00
11:10:05:632 -> 1973.00
11:10:05:643 -> 2102.00
11:10:05:653 -> 2036.00
11:10:05:668 -> 2005.00
11:10:05:673 -> 2147.00
11:10:05:684 -> 1955.00
11:10:05:694 -> 2122.00
11:10:05:705 -> 1931.00
11:10:05:715 -> 2132.00
11:10:05:725 -> 1893.00
11:10:05:735 -> 2050.00
11:10:05:746 -> 1934.00
11:10:05:767 -> 2119.00
11:10:05:777 -> 2133.00
11:10:05:788 -> 2002.00
11:10:05:798 -> 2179.00
11:10:05:827 -> 1912.00
11:10:05:840 -> 2108.00
11:10:05:840 -> 1896.00
11:10:05:841 -> 2027.00
11:10:05:870 -> 1906.00
11:10:05:870 -> 2087.00
11:10:05:870 -> 1958.00
11:10:05:881 -> 2076.00
11:10:05:891 -> 1935.00
11:10:05:901 -> 2102.00
11:10:05:911 -> 2014.00
11:10:05:921 -> 2108.00
11:10:05:932 -> 1996.00
11:10:05:942 -> 2040.00
11:10:05:952 -> 1941.00
11:10:05:963 -> 1981.00
11:10:05:973 -> 2075.00
11:10:05:984 -> 1981.00
11:10:05:994 -> 2132.00
11:10:06:004 -> 1949.00
11:10:06:015 -> 2083.00
11:10:06:025 -> 1968.00
11:10:06:035 -> 2103.00
11:10:06:046 -> 1938.00
11:10:06:056 -> 2113.00
11:10:06:066 -> 1953.00
11:10:06:077 -> 2100.00
11:10:06:087 -> 1899.00
11:10:06:097 -> 2119.00
11:10:06:107 -> 1979.00
11:10:06:118 -> 2138.00
11:10:06:128 -> 1878.00
11:10:06:138 -> 2119.00
11:10:06:149 -> 1919.00
11:10:06:159 -> 2113.00
11:10:06:169 -> 1937.00
11:10:06:179 -> 2092.00
11:10:06:190 -> 1944.00
11:10:06:202 -> 2074.00
11:10:06:211 -> 1966.00
11:10:06:221 -> 2077.00
11:10:06:231 -> 1965.00
11:10:06:242 -> 2066.00
11:10:06:252 -> 2021.00
11:10:06:262 -> 2038.00
11:10:06:273 -> 1998.00
11:10:06:283 -> 1974.00
11:10:06:293 -> 2045.00
11:10:06:304 -> 2014.00
11:10:06:314 -> 2092.00
11:10:06:324 -> 1990.00
11:10:06:335 -> 2063.00
11:10:06:345 -> 1973.00
11:10:06:356 -> 2099.00
11:10:06:366 -> 1937.00
11:10:06:387 -> 2090.00
11:10:06:388 -> 1972.00
11:10:06:397 -> 2092.00
11:10:06:407 -> 1946.00
11:10:06:417 -> 2097.00
11:10:06:428 -> 1952.00
11:10:06:438 -> 2076.00
11:10:06:448 -> 1921.00
11:10:06:459 -> 2139.00
11:10:06:469 -> 1899.00
11:10:06:479 -> 2083.00
11:10:06:490 -> 1912.00
11:10:06:500 -> 2080.00
11:10:06:510 -> 1978.00
11:10:06:521 -> 2101.00
11:10:06:531 -> 1990.00
11:10:06:541 -> 2093.00
11:10:06:552 -> 1994.00
11:10:06:562 -> 2063.00
11:10:06:572 -> 1989.00
11:10:06:583 -> 2049.00
11:10:06:593 -> 2026.00
11:10:06:603 -> 2000.00
11:10:06:614 -> 2064.00
11:10:06:624 -> 1991.00
11:10:06:634 -> 2065.00
11:10:06:645 -> 1985.00
11:10:06:655 -> 2093.00
11:10:06:669 -> 1921.00
11:10:06:693 -> 2125.00
11:10:06:693 -> 1948.00
11:10:06:698 -> 2103.00
11:10:06:706 -> 1937.00
11:10:06:716 -> 2078.00
11:10:06:727 -> 1946.00
11:10:06:737 -> 2166.00
11:10:06:747 -> 1925.00
11:10:06:758 -> 2144.00
11:10:06:768 -> 1915.00
11:10:06:778 -> 2110.00
11:10:06:789 -> 1913.00
11:10:06:799 -> 2089.00
11:10:06:809 -> 1941.00
11:10:06:820 -> 2111.00
11:10:06:830 -> 1944.00
11:10:06:840 -> 2061.00
11:10:06:851 -> 1984.00
11:10:06:861 -> 2107.00
11:10:06:871 -> 2008.00
11:10:06:882 -> 2061.00
11:10:06:907 -> 1986.00
11:10:06:907 -> 2037.00
11:10:06:913 -> 2028.00
11:10:06:923 -> 1993.00
11:10:06:933 -> 2065.00
11:10:06:945 -> 1997.00
11:10:06:954 -> 2094.00
11:10:06:964 -> 1979.00
11:10:06:974 -> 2092.00
11:10:06:985 -> 1970.00
11:10:06:995 -> 2117.00
11:10:07:006 -> 1943.00
11:10:07:016 -> 2065.00
11:10:07:026 -> 1955.00
11:10:07:037 -> 2139.00
11:10:07:047 -> 1925.00
11:10:07:057 -> 2124.00
11:10:07:068 -> 1905.00
11:10:07:078 -> 2133.00
11:10:07:088 -> 1926.00
11:10:07:098 -> 2136.00
11:10:07:109 -> 1900.00
11:10:07:119 -> 2080.00
11:10:07:130 -> 1930.00
11:10:07:140 -> 2106.00
11:10:07:150 -> 1937.00
11:10:07:161 -> 2063.00
11:10:07:171 -> 1955.00
11:10:07:181 -> 2078.00
11:10:07:191 -> 1987.00
11:10:07:202 -> 2045.00
11:10:07:212 -> 2004.00
11:10:07:222 -> 2010.00
11:10:07:233 -> 2006.00
11:10:07:243 -> 2010.00
11:10:07:253 -> 2064.00
11:10:07:264 -> 1992.00
11:10:07:274 -> 2068.00
11:10:07:284 -> 1986.00
11:10:07:295 -> 2064.00
11:10:07:305 -> 1971.00
11:10:07:315 -> 2127.00
11:10:07:326 -> 1927.00
11:10:07:336 -> 2086.00
11:10:07:346 -> 1927.00
11:10:07:357 -> 2136.00
11:10:07:367 -> 1963.00
11:10:07:377 -> 2112.00
11:10:07:390 -> 1921.00
11:10:07:398 -> 2131.00
11:10:07:423 -> 1896.00
11:10:07:424 -> 2132.00
11:10:07:429 -> 1899.00
11:10:07:439 -> 2067.00
11:10:07:449 -> 1941.00
11:10:07:460 -> 2089.00
11:10:07:470 -> 1971.00
11:10:07:482 -> 2081.00
11:10:07:491 -> 1989.00
11:10:07:501 -> 2086.00
11:10:07:511 -> 1970.00
11:10:07:522 -> 2059.00
11:10:07:532 -> 1992.00
11:10:07:542 -> 2043.00
11:10:07:553 -> 2034.00
11:10:07:563 -> 2013.00
11:10:07:574 -> 2048.00
11:10:07:584 -> 1991.00
11:10:07:594 -> 2069.00
11:10:07:604 -> 1986.00
11:10:07:615 -> 2071.00
11:10:07:625 -> 1950.00
11:10:07:635 -> 2113.00
11:10:07:645 -> 1932.00
11:10:07:655 -> 2118.00
11:10:07:666 -> 1928.00
11:10:07:676 -> 2110.00
11:10:07:686 -> 1957.00
11:10:07:697 -> 2133.00
11:10:07:707 -> 1971.00
11:10:07:717 -> 2147.00
11:10:07:728 -> 1901.00
11:10:07:738 -> 2141.00
11:10:07:748 -> 1909.00
11:10:07:759 -> 2097.00
11:10:07:793 -> 1878.00
11:10:07:794 -> 2106.00
11:10:07:794 -> 1919.00
11:10:07:800 -> 2099.00
11:10:07:810 -> 1935.00
11:10:07:820 -> 2094.00
11:10:07:831 -> 1973.00
11:10:07:841 -> 2083.00
11:10:07:851 -> 1976.00
11:10:07:862 -> 2081.00
11:10:07:872 -> 1979.00
11:10:07:882 -> 2047.00
11:10:07:892 -> 2024.00
11:10:07:903 -> 2037.00
11:10:07:913 -> 2046.00
11:10:07:939 -> 1953.00
11:10:07:940 -> 2080.00
11:10:07:944 -> 1917.00
11:10:07:955 -> 2089.00
11:10:07:965 -> 1949.00
11:10:07:975 -> 2087.00
11:10:07:985 -> 1949.00
11:10:07:996 -> 2042.00
11:10:08:006 -> 1907.00
11:10:08:017 -> 2125.00
11:10:08:027 -> 1925.00
11:10:08:038 -> 2160.00
11:10:08:047 -> 1951.00
11:10:08:058 -> 2156.00
11:10:08:068 -> 1921.00
11:10:08:078 -> 2108.00
11:10:08:089 -> 1882.00
11:10:08:099 -> 2079.00
11:10:08:109 -> 1918.00
11:10:08:120 -> 2131.00
11:10:08:130 -> 2008.00
11:10:08:140 -> 2096.00
11:10:08:151 -> 2001.00
11:10:08:161 -> 2043.00
11:10:08:171 -> 1988.00
11:10:08:182 -> 2068.00
11:10:08:196 -> 2012.00
11:10:08:202 -> 2027.00
11:10:08:213 -> 2000.00
11:10:08:223 -> 2003.00
11:10:08:233 -> 2129.00
11:10:08:243 -> 1942.00
11:10:08:254 -> 2059.00
11:10:08:264 -> 1984.00
11:10:08:275 -> 2149.00
11:10:08:285 -> 1971.00
11:10:08:295 -> 2126.00
11:10:08:305 -> 1980.00
11:10:08:316 -> 2111.00
11:10:08:326 -> 1949.00
11:10:08:336 -> 2038.00
11:10:08:347 -> 1928.00
11:10:08:357 -> 2034.00
11:10:08:368 -> 2081.00
11:10:08:378 -> 2116.00
11:10:08:388 -> 1922.00
11:10:08:399 -> 2049.00
11:10:08:409 -> 1896.00
11:10:08:420 -> 2051.00
11:10:08:434 -> 2008.00
11:10:08:456 -> 2115.00
11:10:08:457 -> 2109.00
11:10:08:461 -> 2090.00
11:10:08:472 -> 2021.00
11:10:08:482 -> 2119.00
11:10:08:492 -> 2001.00
11:10:08:503 -> 1985.00
11:10:08:513 -> 2083.00
11:10:08:523 -> 2072.00
11:10:08:533 -> 2054.00
11:10:08:544 -> 1924.00
11:10:08:554 -> 2124.00
11:10:08:564 -> 1906.00
11:10:08:574 -> 2113.00
11:10:08:585 -> 1915.00
11:10:08:595 -> 2128.00
11:10:08:605 -> 1997.00
11:10:08:616 -> 2119.00
11:10:08:626 -> 1912.00
11:10:08:636 -> 2101.00
11:10:08:647 -> 1863.00
11:10:08:657 -> 2111.00
11:10:08:667 -> 2001.00
11:10:08:677 -> 2149.00
11:10:08:688 -> 1904.00
11:10:08:698 -> 2093.00
11:10:08:709 -> 1867.00
11:10:08:719 -> 2108.00
11:10:08:729 -> 2065.00
11:10:08:740 -> 1982.00
11:10:08:750 -> 1927.00
11:10:08:760 -> 2090.00
11:10:08:791 -> 1969.00
11:10:08:771 -> 1908.00
11:10:08:781 -> 2113.00
11:10:08:802 -> 2030.00
11:10:08:812 -> 1991.00
11:10:08:822 -> 2057.00
11:10:08:848 -> 2164.00
11:10:08:855 -> 2008.00
11:10:08:855 -> 2122.00
11:10:08:864 -> 1935.00
11:10:08:874 -> 2077.00
11:10:08:885 -> 1965.00
11:10:08:895 -> 2093.00
11:10:08:905 -> 1972.00
11:10:08:916 -> 2110.00
11:10:08:926 -> 1894.00
11:10:08:936 -> 2108.00
11:10:08:949 -> 1947.00
11:10:08:972 -> 2066.00
11:10:08:973 -> 1918.00
11:10:08:977 -> 2067.00
11:10:08:988 -> 1852.00
11:10:08:998 -> 2167.00
11:10:09:008 -> 1882.00
11:10:09:019 -> 2081.00
11:10:09:029 -> 1825.00
11:10:09:039 -> 2105.00
11:10:09:050 -> 1962.00
11:10:09:060 -> 2055.00
11:10:09:070 -> 1971.00
11:10:09:081 -> 2039.00
11:10:09:091 -> 1954.00
11:10:09:101 -> 2057.00
11:10:09:112 -> 1982.00
11:10:09:122 -> 2054.00
11:10:09:132 -> 2034.00
11:10:09:142 -> 2024.00
11:10:09:153 -> 2001.00
11:10:09:163 -> 1983.00
11:10:09:173 -> 2052.00
11:10:09:184 -> 1933.00
11:10:09:194 -> 2071.00
11:10:09:204 -> 1921.00
11:10:09:214 -> 2045.00
11:10:09:225 -> 2023.00
11:10:09:235 -> 2110.00
11:10:09:245 -> 1965.00
11:10:09:256 -> 2146.00
11:10:09:266 -> 1954.00
11:10:09:276 -> 2052.00
11:10:09:286 -> 1966.00
11:10:09:297 -> 2102.00
11:10:09:307 -> 1960.00
11:10:09:317 -> 2135.00
11:10:09:328 -> 1904.00
11:10:09:338 -> 2134.00
11:10:09:348 -> 1903.00
11:10:09:359 -> 2103.00
11:10:09:369 -> 1921.00
11:10:09:379 -> 2051.00
11:10:09:390 -> 1942.00
11:10:09:400 -> 2066.00
11:10:09:410 -> 2012.00
11:10:09:421 -> 2064.00
11:10:09:431 -> 2008.00
11:10:09:441 -> 2056.00
11:10:09:452 -> 2008.00
11:10:09:462 -> 2047.00
11:10:09:492 -> 2009.00
11:10:09:493 -> 2012.00
11:10:09:493 -> 2051.00
11:10:09:503 -> 2018.00
11:10:09:514 -> 2055.00
11:10:09:524 -> 1967.00
11:10:09:534 -> 2093.00
11:10:09:545 -> 1947.00
11:10:09:555 -> 2085.00
11:10:09:565 -> 1976.00
11:10:09:576 -> 2093.00
11:10:09:586 -> 1967.00
11:10:09:596 -> 2093.00
11:10:09:607 -> 1935.00
11:10:09:617 -> 2133.00
11:10:09:627 -> 1943.00
11:10:09:638 -> 2113.00
11:10:09:651 -> 1914.00
11:10:09:658 -> 2132.00
11:10:09:669 -> 1877.00
11:10:09:679 -> 2086.00
11:10:09:689 -> 1971.00
11:10:09:726 -> 2114.00
11:10:09:726 -> 1944.00
11:10:09:726 -> 2068.00
11:10:09:730 -> 1945.00
11:10:09:741 -> 2048.00
11:10:09:751 -> 1973.00
11:10:09:761 -> 2096.00
11:10:09:771 -> 1978.00
11:10:09:782 -> 2086.00
11:10:09:792 -> 2051.00
11:10:09:802 -> 2053.00
11:10:09:813 -> 2053.00
11:10:09:823 -> 2009.00
11:10:09:833 -> 2079.00
11:10:09:844 -> 1943.00
11:10:09:854 -> 2069.00
11:10:09:864 -> 1949.00
11:10:09:875 -> 2076.00
11:10:09:885 -> 1951.00
11:10:09:895 -> 2111.00
11:10:09:905 -> 1948.00
11:10:09:916 -> 2096.00
11:10:09:926 -> 1965.00
11:10:09:936 -> 2121.00
11:10:09:947 -> 1945.00
11:10:09:957 -> 2141.00
11:10:09:967 -> 1972.00
11:10:09:978 -> 2154.00
11:10:09:988 -> 1909.00
11:10:10:014 -> 2117.00
11:10:10:015 -> 1872.00
11:10:10:019 -> 2124.00
11:10:10:029 -> 1938.00
11:10:10:039 -> 2083.00
11:10:10:050 -> 1950.00
11:10:10:060 -> 2106.00
11:10:10:070 -> 1937.00
11:10:10:081 -> 2106.00
11:10:10:094 -> 1966.00
11:10:10:101 -> 2074.00
11:10:10:112 -> 1999.00
11:10:10:122 -> 2043.00
11:10:10:132 -> 1963.00
11:10:10:143 -> 1993.00
11:10:10:153 -> 2048.00
11:10:10:163 -> 2017.00
11:10:10:174 -> 2077.00
11:10:10:184 -> 1995.00
11:10:10:194 -> 2098.00
11:10:10:205 -> 1988.00
11:10:10:215 -> 2103.00
11:10:10:225 -> 1963.00
11:10:10:235 -> 2090.00
11:10:10:247 -> 1925.00
11:10:10:256 -> 2109.00
11:10:10:266 -> 1939.00
11:10:10:277 -> 2071.00
11:10:10:287 -> 1971.00
11:10:10:297 -> 2127.00
11:10:10:308 -> 1838.00
11:10:10:318 -> 2137.00
11:10:10:328 -> 1894.00
11:10:10:339 -> 2127.00
11:10:10:349 -> 1913.00
11:10:10:359 -> 2102.00
11:10:10:369 -> 1912.00
11:10:10:380 -> 2097.00
11:10:10:393 -> 1948.00
11:10:10:400 -> 2088.00
11:10:10:411 -> 1966.00
11:10:10:421 -> 2077.00
11:10:10:431 -> 1972.00
11:10:10:442 -> 2088.00
11:10:10:452 -> 1989.00
11:10:10:462 -> 2057.00
11:10:10:473 -> 2023.00
11:10:10:512 -> 1976.00
11:10:10:513 -> 2068.00
11:10:10:513 -> 1980.00
11:10:10:514 -> 2080.00
11:10:10:533 -> 1908.00
11:10:10:534 -> 2070.00
11:10:10:550 -> 1962.00
11:10:10:555 -> 2114.00
11:10:10:566 -> 1926.00
11:10:10:576 -> 2112.00
11:10:10:586 -> 1943.00
11:10:10:596 -> 2150.00
11:10:10:607 -> 1897.00
11:10:10:617 -> 2141.00
11:10:10:627 -> 1913.00
11:10:10:642 -> 2151.00
11:10:10:648 -> 1910.00
11:10:10:658 -> 2110.00
11:10:10:669 -> 1881.00
11:10:10:679 -> 2091.00
11:10:10:689 -> 1921.00
11:10:10:700 -> 2072.00
11:10:10:710 -> 1934.00
11:10:10:720 -> 2082.00
11:10:10:734 -> 1955.00
11:10:10:741 -> 2072.00
11:10:10:752 -> 1969.00
11:10:10:762 -> 2044.00
11:10:10:772 -> 2022.00
11:10:10:782 -> 2024.00
11:10:10:793 -> 2051.00
11:10:10:803 -> 1996.00
11:10:10:814 -> 2058.00
11:10:10:824 -> 1990.00
11:10:10:834 -> 2075.00
11:10:10:845 -> 1939.00
11:10:10:855 -> 2099.00
11:10:10:865 -> 1959.00
11:10:10:875 -> 2118.00
11:10:10:886 -> 1946.00
11:10:10:900 -> 2097.00
11:10:10:907 -> 1915.00
11:10:10:917 -> 2115.00
11:10:10:928 -> 1907.00
11:10:10:938 -> 2133.00
11:10:10:948 -> 1892.00
11:10:10:958 -> 2120.00
11:10:10:969 -> 1894.00
11:10:10:979 -> 2127.00
11:10:10:989 -> 1921.00
11:10:10:999 -> 2073.00
11:10:11:010 -> 1940.00
11:10:11:020 -> 2111.00
11:10:11:030 -> 1922.00
11:10:11:047 -> 2100.00
11:10:11:051 -> 1957.00
11:10:11:061 -> 2036.00
11:10:11:071 -> 1984.00
11:10:11:082 -> 2048.00
11:10:11:092 -> 2011.00
11:10:11:106 -> 2032.00
11:10:11:113 -> 2049.00
11:10:11:123 -> 1970.00
11:10:11:133 -> 2073.00
11:10:11:144 -> 1993.00
11:10:11:154 -> 2071.00
11:10:11:164 -> 1968.00
11:10:11:175 -> 2104.00
11:10:11:185 -> 1968.00
11:10:11:195 -> 2125.00
11:10:11:206 -> 1939.00
11:10:11:216 -> 2109.00
11:10:11:226 -> 1928.00
11:10:11:237 -> 2112.00
11:10:11:252 -> 1921.00
11:10:11:257 -> 2155.00
11:10:11:268 -> 1861.00
11:10:11:278 -> 2135.00
11:10:11:288 -> 1869.00
11:10:11:299 -> 2120.00
11:10:11:309 -> 1881.00
11:10:11:319 -> 2094.00
11:10:11:329 -> 1931.00
11:10:11:367 -> 2082.00
11:10:11:368 -> 1964.00
11:10:11:368 -> 2092.00
11:10:11:370 -> 1916.00
11:10:11:381 -> 2065.00
11:10:11:391 -> 1973.00
11:10:11:401 -> 2022.00
11:10:11:412 -> 1991.00
11:10:11:422 -> 2057.00
11:10:11:432 -> 2007.00
11:10:11:442 -> 2032.00
11:10:11:453 -> 2034.00
11:10:11:463 -> 2001.00
11:10:11:474 -> 2071.00
11:10:11:484 -> 1970.00
11:10:11:494 -> 2068.00
11:10:11:504 -> 1895.00
11:10:11:515 -> 2089.00
11:10:11:525 -> 1966.00
11:10:11:535 -> 2125.00
11:10:11:563 -> 1945.00
11:10:11:564 -> 2094.00
11:10:11:566 -> 1924.00
11:10:11:576 -> 2139.00
11:10:11:587 -> 1927.00
11:10:11:597 -> 2158.00
11:10:11:607 -> 1908.00
11:10:11:618 -> 2128.00
11:10:11:628 -> 1906.00
11:10:11:639 -> 2128.00
11:10:11:649 -> 1904.00
11:10:11:659 -> 2091.00
11:10:11:669 -> 1926.00
11:10:11:680 -> 2089.00
11:10:11:690 -> 1961.00
11:10:11:700 -> 2059.00
11:10:11:711 -> 1972.00
11:10:11:721 -> 2046.00
11:10:11:731 -> 1994.00
11:10:11:742 -> 2033.00
11:10:11:752 -> 1989.00
11:10:11:762 -> 2044.00
11:10:11:772 -> 2050.00
11:10:11:783 -> 2013.00
11:10:11:793 -> 2077.00
11:10:11:803 -> 2007.00
11:10:11:814 -> 2069.00
11:10:11:824 -> 1986.00
11:10:11:834 -> 2091.00
11:10:11:845 -> 1995.00
11:10:11:855 -> 2121.00
11:10:11:866 -> 1927.00
11:10:11:876 -> 2120.00
11:10:11:886 -> 1945.00
11:10:11:896 -> 2131.00
11:10:11:908 -> 1937.00
11:10:11:917 -> 2118.00
11:10:11:927 -> 1932.00
11:10:11:938 -> 2099.00
11:10:11:948 -> 1897.00
11:10:11:958 -> 2124.00
11:10:11:969 -> 1903.00
11:10:11:979 -> 2117.00
11:10:11:990 -> 1947.00
11:10:12:000 -> 2062.00
11:10:12:011 -> 1965.00
11:10:12:020 -> 2080.00
11:10:12:031 -> 1971.00
11:10:12:041 -> 2038.00
11:10:12:051 -> 1977.00
11:10:12:062 -> 2071.00
11:10:12:088 -> 2002.00
11:10:12:089 -> 2003.00
11:10:12:093 -> 2047.00
11:10:12:103 -> 1975.00
11:10:12:114 -> 2085.00
11:10:12:124 -> 1943.00
11:10:12:134 -> 2069.00
11:10:12:147 -> 1943.00
11:10:12:180 -> 2097.00
11:10:12:181 -> 1954.00
11:10:12:181 -> 2152.00
11:10:12:186 -> 1919.00
11:10:12:196 -> 2112.00
11:10:12:206 -> 1960.00
11:10:12:216 -> 2103.00
11:10:12:227 -> 1965.00
11:10:12:237 -> 2095.00
11:10:12:247 -> 1952.00
11:10:12:259 -> 2087.00
11:10:12:268 -> 1910.00
11:10:12:278 -> 2060.00
11:10:12:289 -> 1950.00
11:10:12:299 -> 2066.00
11:10:12:309 -> 1932.00
11:10:12:319 -> 2065.00
11:10:12:330 -> 1970.00
11:10:12:340 -> 2068.00
11:10:12:350 -> 1984.00
11:10:12:361 -> 2054.00
11:10:12:371 -> 1977.00
11:10:12:381 -> 2028.00
11:10:12:392 -> 2014.00
11:10:12:402 -> 2030.00
11:10:12:412 -> 2043.00
11:10:12:422 -> 2008.00
11:10:12:433 -> 2073.00
11:10:12:443 -> 1994.00
11:10:12:454 -> 2076.00
11:10:12:464 -> 1928.00
11:10:12:474 -> 2089.00
11:10:12:484 -> 1949.00
11:10:12:495 -> 2088.00
11:10:12:505 -> 1964.00
11:10:12:515 -> 2087.00
11:10:12:526 -> 1940.00
11:10:12:536 -> 2096.00
11:10:12:547 -> 1959.00
11:10:12:557 -> 2130.00
11:10:12:567 -> 1993.00
11:10:12:577 -> 2052.00
11:10:12:602 -> 1939.00
11:10:12:603 -> 2153.00
11:10:12:609 -> 1933.00
11:10:12:619 -> 2096.00
11:10:12:632 -> 1939.00
11:10:12:640 -> 2105.00
11:10:12:650 -> 1952.00
11:10:12:660 -> 2098.00
11:10:12:671 -> 1981.00
11:10:12:681 -> 2024.00
11:10:12:691 -> 2055.00
11:10:12:702 -> 2077.00
11:10:12:712 -> 1993.00
11:10:12:722 -> 2041.00
11:10:12:732 -> 2028.00
11:10:12:743 -> 2029.00
11:10:12:753 -> 2110.00
11:10:12:764 -> 1960.00
11:10:12:774 -> 2028.00
11:10:12:784 -> 1935.00
11:10:12:794 -> 2218.00
11:10:12:804 -> 1987.00
11:10:12:815 -> 2089.00
11:10:12:825 -> 2089.00
11:10:12:835 -> 2221.00
11:10:12:846 -> 1906.00
11:10:12:856 -> 2146.00
11:10:12:866 -> 2003.00
11:10:12:876 -> 2129.00
11:10:12:887 -> 1912.00
11:10:12:897 -> 2128.00
11:10:12:911 -> 1915.00
11:10:12:918 -> 2135.00
11:10:12:928 -> 1844.00
11:10:12:938 -> 2094.00
11:10:12:949 -> 1924.00
11:10:12:959 -> 1985.00
11:10:12:969 -> 1910.00
11:10:12:980 -> 1980.00
11:10:12:990 -> 2049.00
11:10:13:000 -> 2177.00
11:10:13:010 -> 2009.00
11:10:13:021 -> 2012.00
11:10:13:031 -> 2068.00
11:10:13:042 -> 1994.00
11:10:13:073 -> 2129.00
11:10:13:073 -> 1994.00
11:10:13:073 -> 2016.00
11:10:13:083 -> 1970.00
11:10:13:093 -> 2108.00
11:10:13:118 -> 2020.00
11:10:13:119 -> 2059.00
11:10:13:124 -> 1964.00
11:10:13:135 -> 2164.00
11:10:13:145 -> 1921.00
11:10:13:155 -> 2053.00
11:10:13:166 -> 1970.00
11:10:13:176 -> 2035.00
11:10:13:186 -> 2008.00
11:10:13:197 -> 2092.00
11:10:13:207 -> 1950.00
11:10:13:217 -> 2099.00
11:10:13:228 -> 1949.00
11:10:13:238 -> 2080.00
11:10:13:248 -> 1867.00
11:10:13:258 -> 2092.00
11:10:13:269 -> 1950.00
11:10:13:279 -> 2043.00
11:10:13:289 -> 1944.00
11:10:13:299 -> 1929.00
11:10:13:310 -> 1986.00
11:10:13:320 -> 1995.00
11:10:13:331 -> 2041.00
11:10:13:341 -> 2047.00
11:10:13:351 -> 2026.00
11:10:13:362 -> 2002.00
11:10:13:372 -> 2026.00
11:10:13:382 -> 1970.00
11:10:13:392 -> 2060.00
11:10:13:403 -> 2006.00
11:10:13:413 -> 2084.00
11:10:13:424 -> 1958.00
11:10:13:434 -> 2103.00
11:10:13:444 -> 1981.00
11:10:13:454 -> 2065.00
11:10:13:465 -> 1966.00
11:10:13:475 -> 2041.00
11:10:13:485 -> 1947.00
11:10:13:496 -> 2061.00
11:10:13:506 -> 1974.00
11:10:13:516 -> 2072.00
11:10:13:527 -> 1950.00
11:10:13:537 -> 2077.00
11:10:13:547 -> 1971.00
11:10:13:558 -> 2071.00
11:10:13:568 -> 1875.00
11:10:13:578 -> 2107.00
11:10:13:589 -> 1950.00
11:10:13:599 -> 2043.00
11:10:13:610 -> 1956.00
11:10:13:635 -> 2032.00
11:10:13:635 -> 1967.00
11:10:13:641 -> 2056.00
11:10:13:651 -> 2001.00
11:10:13:661 -> 2018.00
11:10:13:672 -> 2007.00
11:10:13:682 -> 2037.00
11:10:13:693 -> 2060.00
11:10:13:703 -> 1983.00
11:10:13:713 -> 2100.00
11:10:13:724 -> 1993.00
11:10:13:734 -> 2093.00
11:10:13:745 -> 1951.00
11:10:13:755 -> 2503.00
11:10:13:765 -> 1930.00
11:10:13:776 -> 2128.00
11:10:13:786 -> 1784.00
11:10:13:796 -> 2079.00
11:10:13:807 -> 1947.00
11:10:13:817 -> 2137.00
11:10:13:828 -> 1933.00
11:10:13:838 -> 2100.00
11:10:13:849 -> 1917.00
11:10:13:859 -> 2096.00
11:10:13:869 -> 1934.00
11:10:13:881 -> 2090.00
11:10:13:890 -> 1971.00
11:10:13:900 -> 2095.00
11:10:13:911 -> 1977.00
11:10:13:921 -> 2074.00
11:10:13:931 -> 1920.00
11:10:13:942 -> 2034.00
11:10:13:952 -> 1998.00
11:10:13:962 -> 2036.00
11:10:13:973 -> 2031.00
11:10:13:983 -> 2015.00
11:10:13:993 -> 2063.00
11:10:14:004 -> 2004.00
11:10:14:014 -> 2036.00
11:10:14:024 -> 1989.00
11:10:14:034 -> 2099.00
11:10:14:045 -> 1968.00
11:10:14:055 -> 2080.00
11:10:14:065 -> 1961.00
11:10:14:076 -> 2117.00
11:10:14:086 -> 1918.00
11:10:14:096 -> 2107.00
11:10:14:107 -> 1939.00
11:10:14:117 -> 2119.00
11:10:14:132 -> 1938.00
11:10:14:152 -> 2115.00
11:10:14:153 -> 1885.00
11:10:14:158 -> 2121.00
11:10:14:168 -> 1916.00
11:10:14:179 -> 2120.00
11:10:14:216 -> 1925.00
11:10:14:217 -> 2103.00
11:10:14:217 -> 1925.00
11:10:14:220 -> 2089.00
11:10:14:230 -> 1943.00
11:10:14:240 -> 2054.00
11:10:14:251 -> 1963.00
11:10:14:261 -> 2053.00
11:10:14:271 -> 1984.00
11:10:14:282 -> 2051.00
11:10:14:292 -> 2024.00
11:10:14:302 -> 2012.00
11:10:14:312 -> 2032.00
11:10:14:323 -> 2050.00
11:10:14:333 -> 2066.00
11:10:14:343 -> 1993.00
11:10:14:354 -> 2075.00
11:10:14:364 -> 1985.00
11:10:14:374 -> 2056.00
11:10:14:385 -> 1953.00
11:10:14:395 -> 2108.00
11:10:14:405 -> 1972.00
11:10:14:416 -> 2079.00
11:10:14:426 -> 1959.00
11:10:14:436 -> 2079.00
11:10:14:448 -> 1940.00
11:10:14:457 -> 2091.00
11:10:14:467 -> 1959.00
11:10:14:477 -> 2099.00
11:10:14:488 -> 1942.00
11:10:14:498 -> 2152.00
11:10:14:508 -> 1921.00
11:10:14:518 -> 2117.00
11:10:14:529 -> 1915.00
11:10:14:539 -> 2085.00
11:10:14:549 -> 1941.00
11:10:14:560 -> 2082.00
11:10:14:573 -> 1964.00
11:10:14:580 -> 2091.00
11:10:14:591 -> 1962.00
11:10:14:601 -> 2073.00
11:10:14:611 -> 1934.00
11:10:14:622 -> 2071.00
11:10:14:632 -> 2015.00
11:10:14:643 -> 2049.00
11:10:14:668 -> 2051.00
11:10:14:669 -> 1972.00
11:10:14:674 -> 2077.00
11:10:14:684 -> 1946.00
11:10:14:695 -> 2087.00
11:10:14:705 -> 1963.00
11:10:14:716 -> 2099.00
11:10:14:726 -> 1955.00
11:10:14:737 -> 2095.00
11:10:14:747 -> 1940.00
11:10:14:757 -> 2105.00
11:10:14:768 -> 1921.00
11:10:14:778 -> 2113.00
11:10:14:794 -> 1910.00
11:10:14:798 -> 2117.00
11:10:14:809 -> 1910.00
11:10:14:819 -> 2090.00
11:10:14:830 -> 1935.00
11:10:14:840 -> 2083.00
11:10:14:850 -> 1964.00
11:10:14:861 -> 2069.00
11:10:14:871 -> 1968.00
11:10:14:881 -> 2036.00
11:10:14:892 -> 1976.00
11:10:14:902 -> 2068.00
11:10:14:912 -> 1987.00
11:10:14:922 -> 2059.00
11:10:14:938 -> 2020.00
11:10:14:943 -> 2021.00
11:10:14:953 -> 2050.00
11:10:14:964 -> 1968.00
11:10:14:974 -> 2077.00
11:10:14:984 -> 1987.00
11:10:15:018 -> 2085.00
11:10:15:018 -> 1956.00
11:10:15:018 -> 2061.00
11:10:15:026 -> 1928.00
11:10:15:036 -> 2112.00
11:10:15:046 -> 1954.00
11:10:15:057 -> 2102.00
11:10:15:069 -> 1926.00
11:10:15:077 -> 2135.00
11:10:15:087 -> 1954.00
11:10:15:098 -> 2085.00
11:10:15:108 -> 1904.00
11:10:15:118 -> 2091.00
11:10:15:129 -> 1907.00
11:10:15:139 -> 2088.00
11:10:15:149 -> 1921.00
11:10:15:160 -> 2108.00
11:10:15:185 -> 1933.00
11:10:15:186 -> 2101.00
11:10:15:191 -> 1994.00
11:10:15:201 -> 2080.00
11:10:15:211 -> 1953.00
11:10:15:221 -> 2054.00
11:10:15:232 -> 2016.00
11:10:15:242 -> 2054.00
11:10:15:253 -> 2041.00
11:10:15:263 -> 2015.00
11:10:15:273 -> 2094.00
11:10:15:284 -> 1979.00
11:10:15:294 -> 2053.00
11:10:15:304 -> 1981.00
11:10:15:315 -> 2095.00
11:10:15:326 -> 1930.00
11:10:15:335 -> 2115.00
11:10:15:346 -> 1949.00
11:10:15:356 -> 2111.00
11:10:15:366 -> 1939.00
11:10:15:377 -> 2139.00
11:10:15:387 -> 1948.00
11:10:15:397 -> 2139.00
11:10:15:408 -> 1886.00
11:10:15:418 -> 2129.00
11:10:15:429 -> 1882.00
11:10:15:439 -> 2114.00
11:10:15:449 -> 1904.00
11:10:15:460 -> 2094.00
11:10:15:470 -> 1925.00
11:10:15:480 -> 2059.00
11:10:15:490 -> 1903.00
11:10:15:501 -> 2067.00
11:10:15:511 -> 1970.00
11:10:15:521 -> 2042.00
11:10:15:532 -> 1973.00
11:10:15:542 -> 2053.00
11:10:15:552 -> 1988.00
11:10:15:567 -> 2013.00
11:10:15:573 -> 2055.00
11:10:15:583 -> 2024.00
11:10:15:594 -> 2081.00
11:10:15:604 -> 1948.00
11:10:15:614 -> 2067.00
11:10:15:624 -> 1966.00
11:10:15:635 -> 2055.00
11:10:15:645 -> 1966.00
11:10:15:656 -> 2101.00
11:10:15:666 -> 1958.00
11:10:15:676 -> 2101.00
11:10:15:708 -> 1946.00
11:10:15:709 -> 2141.00
11:10:15:709 -> 1911.00
11:10:15:717 -> 2154.00
11:10:15:728 -> 1906.00
11:10:15:738 -> 2111.00
11:10:15:748 -> 1889.00
11:10:15:758 -> 2120.00
11:10:15:769 -> 1911.00
11:10:15:779 -> 2114.00
11:10:15:789 -> 1935.00
11:10:15:800 -> 2073.00
11:10:15:810 -> 1967.00
11:10:15:820 -> 2071.00
11:10:15:833 -> 1992.00
11:10:15:841 -> 2042.00
11:10:15:851 -> 1959.00
11:10:15:862 -> 2049.00
11:10:15:873 -> 1982.00
11:10:15:882 -> 2059.00
11:10:15:893 -> 2001.00
11:10:15:903 -> 2007.00
11:10:15:913 -> 2081.00
11:10:15:924 -> 1990.00
11:10:15:934 -> 2072.00
11:10:15:944 -> 1953.00
11:10:15:958 -> 2090.00
11:10:15:965 -> 1956.00
11:10:15:975 -> 2133.00
11:10:15:986 -> 1903.00
11:10:15:996 -> 2111.00
11:10:16:012 -> 1941.00
11:10:16:036 -> 2119.00
11:10:16:036 -> 1986.00
11:10:16:048 -> 2153.00
11:10:16:051 -> 1871.00
11:10:16:058 -> 2110.00
11:10:16:068 -> 1912.00
11:10:16:079 -> 2085.00
11:10:16:089 -> 1930.00
11:10:16:100 -> 2109.00
11:10:16:110 -> 1931.00
11:10:16:120 -> 2075.00
11:10:16:130 -> 2013.00
11:10:16:140 -> 2037.00
11:10:16:151 -> 1972.00
11:10:16:161 -> 2091.00
11:10:16:172 -> 1973.00
11:10:16:182 -> 2044.00
11:10:16:192 -> 2081.00
11:10:16:203 -> 1998.00
11:10:16:225 -> 2009.00
11:10:16:226 -> 1997.00
11:10:16:234 -> 2061.00
11:10:16:244 -> 1967.00
11:10:16:254 -> 2082.00
11:10:16:265 -> 1961.00
11:10:16:275 -> 2132.00
11:10:16:285 -> 1925.00
11:10:16:295 -> 2154.00
11:10:16:306 -> 1890.00
11:10:16:316 -> 2106.00
11:10:16:326 -> 1875.00
11:10:16:336 -> 2177.00
11:10:16:347 -> 1925.00
11:10:16:357 -> 2093.00
11:10:16:367 -> 1888.00
11:10:16:378 -> 2118.00
11:10:16:388 -> 1978.00
11:10:16:398 -> 1996.00
11:10:16:409 -> 1832.00
11:10:16:419 -> 2025.00
11:10:16:429 -> 1973.00
11:10:16:440 -> 2039.00
11:10:16:450 -> 1980.00
11:10:16:460 -> 2054.00
11:10:16:470 -> 2096.00
11:10:16:481 -> 2026.00
11:10:16:491 -> 2060.00
11:10:16:501 -> 2033.00
11:10:16:512 -> 2009.00
11:10:16:522 -> 1996.00
11:10:16:532 -> 2060.00
11:10:16:542 -> 2091.00
11:10:16:553 -> 2111.00
11:10:16:563 -> 1928.00
11:10:16:573 -> 2213.00
11:10:16:584 -> 2039.00
11:10:16:594 -> 2106.00
11:10:16:604 -> 1908.00
11:10:16:614 -> 2108.00
11:10:16:625 -> 1865.00
11:10:16:635 -> 2168.00
11:10:16:646 -> 1964.00
11:10:16:660 -> 2027.00
11:10:16:666 -> 1952.00
11:10:16:677 -> 2171.00
11:10:16:687 -> 1962.00
11:10:16:697 -> 2074.00
11:10:16:707 -> 1865.00
11:10:16:718 -> 2119.00
11:10:16:745 -> 1907.00
11:10:16:746 -> 2095.00
11:10:16:749 -> 1818.00
11:10:16:759 -> 2092.00
11:10:16:769 -> 1957.00
11:10:16:780 -> 2043.00
11:10:16:795 -> 2008.00
11:10:16:801 -> 2038.00
11:10:16:811 -> 1990.00
11:10:16:821 -> 2052.00
11:10:16:831 -> 2046.00
11:10:16:842 -> 2057.00
11:10:16:852 -> 2048.00
11:10:16:875 -> 2057.00
11:10:16:890 -> 2030.00
11:10:16:890 -> 1947.00
11:10:16:893 -> 2071.00
11:10:16:903 -> 2059.00
11:10:16:914 -> 2095.00
11:10:16:924 -> 1935.00
11:10:16:934 -> 2174.00
11:10:16:945 -> 1958.00
11:10:16:957 -> 2111.00
11:10:16:965 -> 2003.00
11:10:16:976 -> 2123.00
11:10:16:986 -> 2001.00
11:10:16:996 -> 2081.00
11:10:17:007 -> 1887.00
11:10:17:017 -> 2178.00
11:10:17:028 -> 1931.00
11:10:17:038 -> 2136.00
11:10:17:048 -> 1916.00
11:10:17:058 -> 2125.00
11:10:17:069 -> 1901.00
11:10:17:079 -> 2074.00
11:10:17:089 -> 1950.00
11:10:17:100 -> 2051.00
11:10:17:110 -> 1960.00
11:10:17:120 -> 2042.00
11:10:17:134 -> 1950.00
11:10:17:141 -> 1999.00
11:10:17:151 -> 1977.00
11:10:17:161 -> 2045.00
11:10:17:172 -> 2008.00
11:10:17:182 -> 2032.00
11:10:17:192 -> 2020.00
11:10:17:202 -> 2000.00
11:10:17:213 -> 2068.00
11:10:17:223 -> 2017.00
11:10:17:234 -> 2125.00
11:10:17:244 -> 1943.00
11:10:17:273 -> 2081.00
11:10:17:275 -> 1875.00
11:10:17:275 -> 2087.00
11:10:17:285 -> 1957.00
11:10:17:295 -> 2075.00
11:10:17:306 -> 1967.00
11:10:17:316 -> 2101.00
11:10:17:326 -> 1955.00
11:10:17:337 -> 2075.00
11:10:17:347 -> 1975.00
11:10:17:357 -> 2142.00
11:10:17:368 -> 1890.00
11:10:17:378 -> 2116.00
11:10:17:388 -> 1893.00
11:10:17:399 -> 2095.00
11:10:17:409 -> 1935.00
11:10:17:423 -> 2097.00
11:10:17:430 -> 1978.00
11:10:17:442 -> 2091.00
11:10:17:452 -> 1993.00
11:10:17:462 -> 2032.00
11:10:17:473 -> 2033.00
11:10:17:483 -> 1995.00
11:10:17:493 -> 2089.00
11:10:17:504 -> 1965.00
11:10:17:514 -> 2104.00
11:10:17:524 -> 1929.00
11:10:17:535 -> 2076.00
11:10:17:546 -> 1950.00
11:10:17:556 -> 2070.00
11:10:17:566 -> 1960.00
11:10:17:578 -> 2124.00
11:10:17:587 -> 1940.00
11:10:17:597 -> 2118.00
11:10:17:607 -> 1973.00
11:10:17:618 -> 2147.00
11:10:17:628 -> 1915.00
11:10:17:638 -> 2099.00
11:10:17:648 -> 1906.00
11:10:17:659 -> 2107.00
11:10:17:669 -> 1920.00
11:10:17:680 -> 2098.00
11:10:17:690 -> 1950.00
11:10:17:701 -> 2084.00
11:10:17:711 -> 1947.00
11:10:17:721 -> 2083.00
11:10:17:732 -> 1944.00
11:10:17:742 -> 2067.00
11:10:17:752 -> 2026.00
11:10:17:762 -> 2011.00
11:10:17:788 -> 2016.00
11:10:17:788 -> 1999.00
11:10:17:794 -> 2056.00
11:10:17:804 -> 2012.00
11:10:17:814 -> 2100.00
11:10:17:829 -> 1972.00
11:10:17:835 -> 2321.00
11:10:17:845 -> 1960.00
11:10:17:855 -> 2103.00
11:10:17:866 -> 1953.00
11:10:17:876 -> 2128.00
11:10:17:886 -> 1933.00
11:10:17:897 -> 2135.00
11:10:17:907 -> 1940.00
11:10:17:917 -> 2148.00
11:10:17:928 -> 1914.00
11:10:17:960 -> 2139.00
11:10:17:960 -> 1894.00
11:10:17:960 -> 2144.00
11:10:17:973 -> 1879.00
11:10:17:979 -> 2093.00
11:10:17:989 -> 1925.00
11:10:17:999 -> 2142.00
11:10:18:009 -> 1911.00
11:10:18:020 -> 2088.00
11:10:18:030 -> 1897.00
11:10:18:040 -> 2104.00
11:10:18:052 -> 1933.00
11:10:18:061 -> 2085.00
11:10:18:071 -> 1942.00
11:10:18:081 -> 2082.00
11:10:18:092 -> 1982.00
11:10:18:102 -> 2063.00
11:10:18:112 -> 1965.00
11:10:18:122 -> 2030.00
11:10:18:133 -> 2048.00
11:10:18:143 -> 2023.00
11:10:18:153 -> 2057.00
11:10:18:164 -> 2019.00
11:10:18:174 -> 2064.00
11:10:18:184 -> 1987.00
11:10:18:195 -> 2062.00
11:10:18:205 -> 1955.00
11:10:18:215 -> 2087.00
11:10:18:226 -> 1934.00
11:10:18:236 -> 2068.00
11:10:18:248 -> 1912.00
11:10:18:257 -> 2141.00
11:10:18:267 -> 1918.00
11:10:18:277 -> 2166.00
11:10:18:303 -> 1892.00
11:10:18:304 -> 2148.00
11:10:18:308 -> 1873.00
11:10:18:318 -> 2161.00
11:10:18:329 -> 1903.00
11:10:18:339 -> 2160.00
11:10:18:350 -> 1936.00
11:10:18:360 -> 2078.00
11:10:18:370 -> 1955.00
11:10:18:380 -> 2140.00
11:10:18:391 -> 1925.00
11:10:18:401 -> 2086.00
11:10:18:411 -> 1954.00
11:10:18:422 -> 2024.00
11:10:18:432 -> 1983.00
11:10:18:443 -> 2039.00
11:10:18:453 -> 2006.00
11:10:18:463 -> 2042.00
11:10:18:473 -> 2047.00
11:10:18:484 -> 1996.00
11:10:18:494 -> 2069.00
11:10:18:505 -> 1966.00
11:10:18:515 -> 2093.00
11:10:18:525 -> 1961.00
11:10:18:536 -> 2102.00
11:10:18:546 -> 1964.00
11:10:18:556 -> 2115.00
11:10:18:567 -> 1934.00
11:10:18:577 -> 2124.00
11:10:18:587 -> 1965.00
11:10:18:597 -> 2127.00
11:10:18:608 -> 1903.00
11:10:18:618 -> 2146.00
11:10:18:628 -> 1897.00
11:10:18:639 -> 2166.00
11:10:18:649 -> 1894.00
11:10:18:659 -> 2101.00
11:10:18:670 -> 1943.00
11:10:18:681 -> 2110.00
11:10:18:691 -> 1962.00
11:10:18:701 -> 2095.00
11:10:18:712 -> 1945.00
11:10:18:722 -> 2087.00
11:10:18:732 -> 1955.00
11:10:18:742 -> 2068.00
11:10:18:753 -> 2010.00
11:10:18:763 -> 1987.00
11:10:18:774 -> 2047.00
11:10:18:784 -> 2025.00
11:10:18:794 -> 2051.00
11:10:18:818 -> 1944.00
11:10:18:819 -> 2096.00
11:10:18:825 -> 1962.00
11:10:18:835 -> 2169.00
11:10:18:846 -> 1974.00
11:10:18:856 -> 2121.00
11:10:18:866 -> 1919.00
11:10:18:876 -> 2106.00
11:10:18:887 -> 1937.00
11:10:18:897 -> 2137.00
11:10:18:907 -> 1988.00
11:10:18:918 -> 2166.00
11:10:18:928 -> 1908.00
11:10:18:938 -> 2167.00
11:10:18:949 -> 1895.00
11:10:18:959 -> 2164.00
11:10:18:988 -> 1914.00
11:10:18:988 -> 2099.00
11:10:18:990 -> 1895.00
11:10:19:000 -> 2111.00
11:10:19:011 -> 1939.00
11:10:19:021 -> 2099.00
11:10:19:031 -> 1968.00
11:10:19:042 -> 2093.00
11:10:19:052 -> 1949.00
11:10:19:062 -> 2079.00
11:10:19:073 -> 1973.00
11:10:19:083 -> 2041.00
11:10:19:093 -> 2032.00
11:10:19:103 -> 2002.00
11:10:19:114 -> 2004.00
11:10:19:124 -> 2007.00
11:10:19:134 -> 2057.00
11:10:19:145 -> 1958.00
11:10:19:155 -> 2088.00
11:10:19:165 -> 1949.00
11:10:19:176 -> 2120.00
11:10:19:186 -> 1935.00
11:10:19:197 -> 2081.00
11:10:19:207 -> 1976.00
11:10:19:217 -> 2147.00
11:10:19:228 -> 1982.00
11:10:19:238 -> 2148.00
11:10:19:248 -> 1887.00
11:10:19:259 -> 2153.00
11:10:19:273 -> 1869.00
11:10:19:279 -> 2129.00
11:10:19:289 -> 1891.00
11:10:19:300 -> 2113.00
11:10:19:310 -> 1921.00
11:10:19:333 -> 2117.00
11:10:19:334 -> 1933.00
11:10:19:341 -> 2093.00
11:10:19:351 -> 1942.00
11:10:19:362 -> 2069.00
11:10:19:372 -> 1964.00
11:10:19:383 -> 2023.00
11:10:19:393 -> 1970.00
11:10:19:403 -> 2019.00
11:10:19:413 -> 2036.00
11:10:19:425 -> 1971.00
11:10:19:434 -> 2053.00
11:10:19:445 -> 1991.00
11:10:19:455 -> 2070.00
11:10:19:465 -> 1982.00
11:10:19:475 -> 2075.00
11:10:19:486 -> 1940.00
11:10:19:496 -> 2091.00
11:10:19:506 -> 1957.00
11:10:19:517 -> 2103.00
11:10:19:527 -> 1935.00
11:10:19:537 -> 2156.00
11:10:19:548 -> 1945.00
11:10:19:558 -> 2134.00
11:10:19:569 -> 1924.00
11:10:19:579 -> 2148.00
11:10:19:589 -> 1888.00
11:10:19:600 -> 2112.00
11:10:19:610 -> 1919.00
11:10:19:620 -> 2113.00
11:10:19:630 -> 1900.00
11:10:19:641 -> 2065.00
11:10:19:651 -> 1954.00
11:10:19:662 -> 2079.00
11:10:19:672 -> 1962.00
11:10:19:682 -> 2083.00
11:10:19:692 -> 1957.00
11:10:19:703 -> 2038.00
11:10:19:713 -> 2007.00
11:10:19:723 -> 2028.00
11:10:19:734 -> 2053.00
11:10:19:744 -> 1990.00
11:10:19:754 -> 2039.00
11:10:19:764 -> 2012.00
11:10:19:775 -> 2051.00
11:10:19:785 -> 2023.00
11:10:19:795 -> 2080.00
11:10:19:806 -> 1987.00
11:10:19:816 -> 2102.00
11:10:19:826 -> 1924.00
11:10:19:847 -> 2103.00
11:10:19:848 -> 1949.00
11:10:19:857 -> 2144.00
11:10:19:867 -> 1927.00
11:10:19:878 -> 2115.00
11:10:19:888 -> 1927.00
11:10:19:899 -> 2165.00
11:10:19:909 -> 1886.00
11:10:19:919 -> 2090.00
11:10:19:930 -> 1851.00
11:10:19:940 -> 2092.00
11:10:19:951 -> 1938.00
11:10:19:961 -> 2107.00
11:10:19:971 -> 1947.00
11:10:19:981 -> 2068.00
11:10:19:992 -> 1977.00
11:10:20:002 -> 2048.00
11:10:20:012 -> 2009.00
11:10:20:024 -> 2058.00
11:10:20:034 -> 2026.00
11:10:20:044 -> 2009.00
11:10:20:054 -> 2061.00
11:10:20:065 -> 1983.00
11:10:20:075 -> 2109.00
11:10:20:085 -> 1970.00
11:10:20:095 -> 2083.00
11:10:20:127 -> 1931.00
11:10:20:127 -> 2094.00
11:10:20:127 -> 1942.00
11:10:20:137 -> 2122.00
11:10:20:147 -> 1921.00
11:10:20:158 -> 2148.00
11:10:20:167 -> 1905.00
11:10:20:178 -> 2155.00
11:10:20:188 -> 1984.00
11:10:20:198 -> 2117.00
11:10:20:208 -> 1902.00
11:10:20:219 -> 2145.00
11:10:20:229 -> 1903.00
11:10:20:239 -> 2125.00
11:10:20:250 -> 1884.00
11:10:20:264 -> 2095.00
11:10:20:270 -> 1933.00
11:10:20:281 -> 2034.00
11:10:20:291 -> 1952.00
11:10:20:301 -> 2067.00
11:10:20:312 -> 1962.00
11:10:20:322 -> 2080.00
11:10:20:332 -> 1993.00
11:10:20:343 -> 2082.00
11:10:20:362 -> 2031.00
11:10:20:363 -> 1997.00
11:10:20:374 -> 2002.00
11:10:20:384 -> 1997.00
11:10:20:394 -> 2055.00
11:10:20:405 -> 1958.00
11:10:20:415 -> 2152.00
11:10:20:426 -> 1916.00
11:10:20:436 -> 2180.00
11:10:20:446 -> 1994.00
11:10:20:456 -> 1947.00
11:10:20:467 -> 1917.00
11:10:20:477 -> 1968.00
11:10:20:488 -> 1926.00
11:10:20:498 -> 2163.00
11:10:20:508 -> 1882.00
11:10:20:519 -> 2016.00
11:10:20:533 -> 1987.00
11:10:20:539 -> 2090.00
11:10:20:549 -> 2192.00
11:10:20:560 -> 1993.00
11:10:20:570 -> 2014.00
11:10:20:580 -> 2100.00
11:10:20:591 -> 2105.00
11:10:20:601 -> 2144.00
11:10:20:611 -> 2158.00
11:10:20:622 -> 1969.00
11:10:20:632 -> 2087.00
11:10:20:642 -> 2074.00
11:10:20:653 -> 1990.00
11:10:20:663 -> 2006.00
11:10:20:673 -> 2100.00
11:10:20:684 -> 1984.00
11:10:20:694 -> 2020.00
11:10:20:704 -> 1960.00
11:10:20:715 -> 1930.00
11:10:20:725 -> 2023.00
11:10:20:735 -> 2466.00
11:10:20:746 -> 1956.00
11:10:20:756 -> 2095.00
11:10:20:766 -> 1935.00
11:10:20:777 -> 2113.00
11:10:20:787 -> 1918.00
11:10:20:797 -> 2132.00
11:10:20:807 -> 1934.00
11:10:20:818 -> 2090.00
11:10:20:828 -> 2028.00
11:10:20:838 -> 2106.00
11:10:20:849 -> 1898.00
11:10:20:859 -> 2076.00
11:10:20:882 -> 1896.00
11:10:20:883 -> 2109.00
11:10:20:890 -> 1897.00
11:10:20:900 -> 2083.00
11:10:20:911 -> 2024.00
11:10:20:921 -> 2063.00
11:10:20:931 -> 1985.00
11:10:20:941 -> 2072.00
11:10:20:952 -> 1914.00
11:10:20:962 -> 2105.00
11:10:20:973 -> 1916.00
11:10:20:983 -> 2099.00
11:10:20:993 -> 2001.00
11:10:21:003 -> 1941.00
11:10:21:014 -> 2026.00
11:10:21:024 -> 1978.00
11:10:21:036 -> 2075.00
11:10:21:045 -> 1965.00
11:10:21:055 -> 2099.00
11:10:21:065 -> 2021.00
11:10:21:076 -> 2046.00
11:10:21:086 -> 1993.00
11:10:21:096 -> 2123.00
11:10:21:106 -> 1954.00
11:10:21:117 -> 2068.00
11:10:21:127 -> 1939.00
11:10:21:137 -> 1961.00
11:10:21:148 -> 1977.00
11:10:21:158 -> 2032.00
11:10:21:168 -> 1937.00
11:10:21:179 -> 2102.00
11:10:21:189 -> 1934.00
11:10:21:199 -> 2084.00
11:10:21:216 -> 1935.00
11:10:21:249 -> 2092.00
11:10:21:249 -> 1984.00
11:10:21:249 -> 2063.00
11:10:21:251 -> 1982.00
11:10:21:261 -> 2070.00
11:10:21:271 -> 1982.00
11:10:21:282 -> 2053.00
11:10:21:292 -> 2003.00
11:10:21:302 -> 2029.00
11:10:21:313 -> 1998.00
11:10:21:323 -> 1971.00
11:10:21:333 -> 2006.00
11:10:21:344 -> 1988.00
11:10:21:354 -> 2069.00
11:10:21:364 -> 1992.00
11:10:21:375 -> 2088.00
11:10:21:397 -> 1959.00
11:10:21:397 -> 2095.00
11:10:21:405 -> 1969.00
11:10:21:416 -> 2107.00
11:10:21:426 -> 1962.00
11:10:21:436 -> 2121.00
11:10:21:447 -> 1933.00
11:10:21:457 -> 2096.00
11:10:21:468 -> 1918.00
11:10:21:478 -> 2146.00
11:10:21:488 -> 1964.00
11:10:21:498 -> 2162.00
11:10:21:511 -> 1914.00
11:10:21:519 -> 2119.00
11:10:21:529 -> 1893.00
11:10:21:539 -> 2093.00
11:10:21:550 -> 1916.00
11:10:21:560 -> 2125.00
11:10:21:571 -> 1919.00
11:10:21:581 -> 2070.00
11:10:21:591 -> 1961.00
11:10:21:602 -> 2099.00
11:10:21:612 -> 1974.00
11:10:21:622 -> 2061.00
11:10:21:632 -> 1959.00
11:10:21:643 -> 2074.00
11:10:21:653 -> 1977.00
11:10:21:663 -> 2032.00
11:10:21:674 -> 2010.00
11:10:21:684 -> 1982.00
11:10:21:694 -> 2105.00
11:10:21:705 -> 2023.00
11:10:21:715 -> 2112.00
11:10:21:725 -> 1987.00
11:10:21:736 -> 2070.00
11:10:21:746 -> 1961.00
11:10:21:756 -> 2103.00
11:10:21:767 -> 1934.00
11:10:21:777 -> 2106.00
11:10:21:788 -> 1936.00
11:10:21:798 -> 2122.00
11:10:21:808 -> 1960.00
11:10:21:819 -> 2164.00
11:10:21:829 -> 1887.00
11:10:21:839 -> 2125.00
11:10:21:850 -> 1904.00
11:10:21:860 -> 2096.00
11:10:21:870 -> 1885.00
11:10:21:881 -> 2085.00
11:10:21:891 -> 1950.00
11:10:21:916 -> 2107.00
11:10:21:916 -> 1979.00
11:10:21:922 -> 2105.00
11:10:21:932 -> 1951.00
11:10:21:943 -> 2093.00
11:10:21:953 -> 1963.00
11:10:21:963 -> 2010.00
11:10:21:974 -> 2019.00
11:10:21:984 -> 1981.00
11:10:21:994 -> 2081.00
11:10:22:005 -> 1981.00
11:10:22:015 -> 2093.00
11:10:22:025 -> 1977.00
11:10:22:049 -> 2104.00
11:10:22:066 -> 1921.00
11:10:22:066 -> 2124.00
11:10:22:067 -> 1915.00
11:10:22:077 -> 2102.00
11:10:22:087 -> 1932.00
11:10:22:098 -> 2163.00
11:10:22:108 -> 1938.00
11:10:22:118 -> 2173.00
11:10:22:129 -> 1904.00
11:10:22:139 -> 2173.00
11:10:22:149 -> 1848.00
11:10:22:160 -> 2124.00
11:10:22:170 -> 1922.00
11:10:22:181 -> 2115.00
11:10:22:191 -> 1963.00
11:10:22:202 -> 2077.00
11:10:22:215 -> 1981.00
11:10:22:222 -> 2076.00
11:10:22:232 -> 1965.00
11:10:22:243 -> 2066.00
11:10:22:253 -> 1941.00
11:10:22:263 -> 2007.00
11:10:22:274 -> 2012.00
11:10:22:284 -> 1980.00
11:10:22:295 -> 2065.00
11:10:22:305 -> 1997.00
11:10:22:315 -> 2081.00
11:10:22:326 -> 1991.00
11:10:22:336 -> 2094.00
11:10:22:346 -> 1961.00
11:10:22:357 -> 2159.00
11:10:22:367 -> 1934.00
11:10:22:377 -> 2118.00
11:10:22:387 -> 1972.00
11:10:22:398 -> 2158.00
11:10:22:409 -> 1942.00
11:10:22:429 -> 2126.00
11:10:22:430 -> 1905.00
11:10:22:439 -> 2136.00
11:10:22:449 -> 1894.00
11:10:22:459 -> 2057.00
11:10:22:470 -> 1902.00
11:10:22:480 -> 2095.00
11:10:22:491 -> 1909.00
11:10:22:501 -> 2072.00
11:10:22:515 -> 1945.00
11:10:22:523 -> 2078.00
11:10:22:533 -> 1952.00
11:10:22:543 -> 2038.00
11:10:22:554 -> 2027.00
11:10:22:564 -> 2022.00
11:10:22:574 -> 2057.00
11:10:22:585 -> 1973.00
11:10:22:595 -> 2098.00
11:10:22:605 -> 1971.00
11:10:22:616 -> 2141.00
11:10:22:626 -> 1921.00
11:10:22:637 -> 2118.00
11:10:22:647 -> 1923.00
11:10:22:657 -> 2092.00
11:10:22:667 -> 1945.00
11:10:22:678 -> 2123.00
11:10:22:688 -> 1967.00
11:10:22:698 -> 2141.00
11:10:22:708 -> 1880.00
11:10:22:719 -> 2170.00
11:10:22:729 -> 1900.00
11:10:22:740 -> 2127.00
11:10:22:750 -> 1931.00
11:10:22:762 -> 2131.00
11:10:22:770 -> 1895.00
11:10:22:781 -> 2112.00
11:10:22:791 -> 1950.00
11:10:22:801 -> 2085.00
11:10:22:812 -> 1894.00
11:10:22:822 -> 2083.00
11:10:22:832 -> 1970.00
11:10:22:843 -> 2081.00
11:10:22:853 -> 1988.00
11:10:22:863 -> 1989.00
11:10:22:874 -> 2052.00
11:10:22:884 -> 2011.00
11:10:22:894 -> 2011.00
11:10:22:927 -> 1962.00
11:10:22:927 -> 2069.00
11:10:22:927 -> 1980.00
11:10:22:955 -> 2081.00
11:10:22:957 -> 1917.00
11:10:22:957 -> 2105.00
11:10:22:967 -> 1967.00
11:10:22:977 -> 2128.00
11:10:22:987 -> 1977.00
11:10:22:998 -> 2107.00
11:10:23:008 -> 1889.00
11:10:23:018 -> 2161.00
11:10:23:029 -> 1884.00
11:10:23:039 -> 2174.00
11:10:23:049 -> 1866.00
11:10:23:060 -> 2103.00
11:10:23:070 -> 1905.00
11:10:23:080 -> 2106.00
11:10:23:091 -> 1912.00
11:10:23:101 -> 2100.00
11:10:23:111 -> 1972.00
11:10:23:122 -> 2100.00
11:10:23:132 -> 2028.00
11:10:23:142 -> 2082.00
11:10:23:153 -> 1983.00
11:10:23:163 -> 2058.00
11:10:23:174 -> 2020.00
11:10:23:184 -> 2040.00
11:10:23:194 -> 2076.00
11:10:23:204 -> 2019.00
11:10:23:214 -> 2028.00
11:10:23:225 -> 1969.00
11:10:23:235 -> 2086.00
11:10:23:246 -> 1961.00
11:10:23:256 -> 2117.00
11:10:23:268 -> 1953.00
11:10:23:276 -> 2089.00
11:10:23:287 -> 1943.00
11:10:23:297 -> 2081.00
11:10:23:308 -> 1948.00
11:10:23:318 -> 2132.00
11:10:23:328 -> 1932.00
11:10:23:338 -> 2133.00
11:10:23:349 -> 1946.00
11:10:23:359 -> 2170.00
11:10:23:370 -> 1851.00
11:10:23:380 -> 2073.00
11:10:23:390 -> 1918.00
11:10:23:400 -> 2029.00
11:10:23:411 -> 1930.00
11:10:23:421 -> 2121.00
11:10:23:431 -> 1927.00
11:10:23:442 -> 2106.00
11:10:23:452 -> 1996.00
11:10:23:478 -> 2045.00
11:10:23:478 -> 1990.00
11:10:23:483 -> 2055.00
11:10:23:493 -> 1906.00
11:10:23:504 -> 1998.00
11:10:23:514 -> 2005.00
11:10:23:524 -> 1992.00
11:10:23:535 -> 2066.00
11:10:23:545 -> 1993.00
11:10:23:556 -> 2092.00
11:10:23:566 -> 1954.00
11:10:23:576 -> 2104.00
11:10:23:587 -> 1956.00
11:10:23:597 -> 2118.00
11:10:23:609 -> 1960.00
11:10:23:618 -> 2123.00
11:10:23:628 -> 1957.00
11:10:23:638 -> 2122.00
11:10:23:649 -> 1934.00
11:10:23:659 -> 2142.00
11:10:23:669 -> 1884.00
11:10:23:680 -> 2050.00
11:10:23:693 -> 1896.00
11:10:23:701 -> 2080.00
11:10:23:711 -> 1925.00
11:10:23:721 -> 2085.00
11:10:23:731 -> 1952.00
11:10:23:741 -> 2076.00
11:10:23:752 -> 1983.00
11:10:23:762 -> 2063.00
11:10:23:772 -> 1990.00
11:10:23:783 -> 2069.00
11:10:23:793 -> 1979.00
11:10:23:804 -> 2028.00
11:10:23:814 -> 2024.00
11:10:23:824 -> 1991.00
11:10:23:856 -> 2073.00
11:10:23:857 -> 1980.00
11:10:23:857 -> 2092.00
11:10:23:865 -> 1972.00
11:10:23:876 -> 2079.00
11:10:23:886 -> 1962.00
11:10:23:896 -> 2081.00
11:10:23:907 -> 1940.00
11:10:23:917 -> 2098.00
11:10:23:927 -> 1938.00
11:10:23:938 -> 2114.00
11:10:23:948 -> 1923.00
11:10:23:958 -> 2157.00
11:10:23:969 -> 1983.00
11:10:23:994 -> 2143.00
11:10:23:994 -> 1910.00
11:10:24:000 -> 2076.00
11:10:24:010 -> 1894.00
11:10:24:020 -> 2117.00
11:10:24:031 -> 1937.00
11:10:24:041 -> 2116.00
11:10:24:051 -> 1942.00
11:10:24:062 -> 2083.00
11:10:24:072 -> 1954.00
11:10:24:082 -> 2077.00
11:10:24:093 -> 1964.00
11:10:24:103 -> 2088.00
11:10:24:113 -> 1978.00
11:10:24:124 -> 2034.00
11:10:24:134 -> 2009.00
11:10:24:144 -> 1977.00
11:10:24:155 -> 2072.00
11:10:24:165 -> 2002.00
11:10:24:175 -> 2111.00
11:10:24:186 -> 1988.00
11:10:24:196 -> 2113.00
11:10:24:206 -> 1934.00
11:10:24:217 -> 2090.00
11:10:24:227 -> 1945.00
11:10:24:237 -> 2124.00
11:10:24:248 -> 1944.00
11:10:24:258 -> 2139.00
11:10:24:268 -> 1957.00
11:10:24:278 -> 2145.00
11:10:24:289 -> 1919.00
11:10:24:300 -> 2130.00
11:10:24:310 -> 1899.00
11:10:24:320 -> 2095.00
11:10:24:330 -> 1882.00
11:10:24:341 -> 2085.00
11:10:24:351 -> 1917.00
11:10:24:362 -> 2068.00
11:10:24:372 -> 2008.00
11:10:24:382 -> 2118.00
11:10:24:393 -> 1997.00
11:10:24:403 -> 2035.00
11:10:24:413 -> 1998.00
11:10:24:424 -> 2077.00
11:10:24:434 -> 2023.00
11:10:24:444 -> 1993.00
11:10:24:454 -> 2067.00
11:10:24:465 -> 1953.00
11:10:24:475 -> 2064.00
11:10:24:485 -> 1978.00
11:10:24:514 -> 2087.00
11:10:24:514 -> 1941.00
11:10:24:516 -> 2096.00
11:10:24:527 -> 1927.00
11:10:24:537 -> 2081.00
11:10:24:547 -> 1927.00
11:10:24:558 -> 2067.00
11:10:24:568 -> 1939.00
11:10:24:578 -> 2089.00
11:10:24:588 -> 1910.00
11:10:24:599 -> 2198.00
11:10:24:609 -> 1913.00
11:10:24:620 -> 2138.00
11:10:24:630 -> 1889.00
11:10:24:640 -> 2071.00
11:10:24:650 -> 1900.00
11:10:24:661 -> 2109.00
11:10:24:672 -> 1903.00
11:10:24:681 -> 2071.00
11:10:24:695 -> 1955.00
11:10:24:702 -> 2077.00
11:10:24:713 -> 1993.00
11:10:24:723 -> 2077.00
11:10:24:733 -> 1984.00
11:10:24:744 -> 2023.00
11:10:24:754 -> 1990.00
11:10:24:764 -> 1987.00
11:10:24:774 -> 2026.00
11:10:24:785 -> 1996.00
11:10:24:795 -> 2089.00
11:10:24:805 -> 1910.00
11:10:24:815 -> 2096.00
11:10:24:826 -> 1928.00
11:10:24:836 -> 2102.00
11:10:24:847 -> 1946.00
11:10:24:857 -> 2089.00
11:10:24:867 -> 1977.00
11:10:24:878 -> 2099.00
11:10:24:888 -> 1921.00
11:10:24:898 -> 2147.00
11:10:24:909 -> 2005.00
11:10:24:919 -> 2094.00
11:10:24:951 -> 2039.00
11:10:24:952 -> 2111.00
11:10:24:952 -> 1897.00
11:10:24:960 -> 2231.00
11:10:24:972 -> 1778.00
11:10:24:980 -> 2091.00
11:10:24:991 -> 2006.00
11:10:25:001 -> 1897.00
11:10:25:012 -> 1922.00
11:10:25:036 -> 2023.00
11:10:25:037 -> 1957.00
11:10:25:042 -> 1991.00
11:10:25:052 -> 1909.00
11:10:25:062 -> 1986.00
11:10:25:073 -> 1942.00
11:10:25:083 -> 2009.00
11:10:25:093 -> 1913.00
11:10:25:104 -> 2172.00
11:10:25:114 -> 2045.00
11:10:25:125 -> 1894.00
11:10:25:135 -> 2110.00
11:10:25:146 -> 1936.00
11:10:25:156 -> 2237.00
11:10:25:166 -> 1953.00
11:10:25:177 -> 2239.00
11:10:25:187 -> 1954.00
11:10:25:197 -> 1936.00
11:10:25:208 -> 2092.00
11:10:25:218 -> 2064.00
11:10:25:228 -> 1951.00
11:10:25:239 -> 2133.00
11:10:25:249 -> 1944.00
11:10:25:259 -> 2071.00
11:10:25:269 -> 2022.00
11:10:25:280 -> 2131.00
11:10:25:290 -> 1856.00
11:10:25:301 -> 2087.00
11:10:25:311 -> 1923.00
11:10:25:321 -> 2033.00
11:10:25:331 -> 1941.00
11:10:25:342 -> 2113.00
11:10:25:352 -> 1945.00
11:10:25:363 -> 2059.00
11:10:25:373 -> 1949.00
11:10:25:383 -> 2058.00
11:10:25:398 -> 2061.00
11:10:25:404 -> 2066.00
11:10:25:414 -> 1944.00
11:10:25:424 -> 2017.00
11:10:25:435 -> 2062.00
11:10:25:445 -> 1962.00
11:10:25:455 -> 2048.00
11:10:25:466 -> 1910.00
11:10:25:476 -> 2098.00
11:10:25:486 -> 1919.00
11:10:25:497 -> 2050.00
11:10:25:510 -> 1945.00
11:10:25:517 -> 2058.00
11:10:25:528 -> 1916.00
11:10:25:553 -> 2086.00
11:10:25:554 -> 1985.00
11:10:25:558 -> 2108.00
11:10:25:569 -> 1981.00
11:10:25:579 -> 2132.00
11:10:25:589 -> 1956.00
11:10:25:600 -> 2097.00
11:10:25:610 -> 1887.00
11:10:25:620 -> 2107.00
11:10:25:631 -> 1917.00
11:10:25:641 -> 2067.00
11:10:25:651 -> 1944.00
11:10:25:662 -> 2069.00
11:10:25:672 -> 2034.00
11:10:25:683 -> 2044.00
11:10:25:693 -> 1960.00
11:10:25:703 -> 2071.00
11:10:25:734 -> 1968.00
11:10:25:735 -> 2045.00
11:10:25:735 -> 2025.00
11:10:25:744 -> 2030.00
11:10:25:755 -> 2024.00
11:10:25:765 -> 1989.00
11:10:25:775 -> 2062.00
11:10:25:786 -> 1977.00
11:10:25:796 -> 2085.00
11:10:25:806 -> 1960.00
11:10:25:816 -> 2072.00
11:10:25:827 -> 1918.00
11:10:25:838 -> 2129.00
11:10:25:848 -> 1938.00
11:10:25:858 -> 2155.00
11:10:25:869 -> 1912.00
11:10:25:883 -> 2057.00
11:10:25:890 -> 1896.00
11:10:25:900 -> 2082.00
11:10:25:910 -> 1855.00
11:10:25:920 -> 2097.00
11:10:25:931 -> 1920.00
11:10:25:941 -> 2101.00
11:10:25:951 -> 1917.00
11:10:25:962 -> 2052.00
11:10:25:972 -> 1977.00
11:10:25:982 -> 2110.00
11:10:25:993 -> 2007.00
11:10:26:003 -> 2052.00
11:10:26:014 -> 2006.00
11:10:26:024 -> 2035.00
11:10:26:034 -> 1984.00
11:10:26:044 -> 1918.00
11:10:26:068 -> 2050.00
11:10:26:069 -> 1992.00
11:10:26:075 -> 2085.00
11:10:26:086 -> 1985.00
11:10:26:096 -> 2079.00
11:10:26:106 -> 1943.00
11:10:26:117 -> 2095.00
11:10:26:127 -> 1919.00
11:10:26:138 -> 2118.00
11:10:26:149 -> 1949.00
11:10:26:158 -> 2058.00
11:10:26:169 -> 1926.00
11:10:26:179 -> 2152.00
11:10:26:190 -> 1906.00
11:10:26:200 -> 2116.00
11:10:26:210 -> 1902.00
11:10:26:220 -> 2074.00
11:10:26:231 -> 1903.00
11:10:26:241 -> 2101.00
11:10:26:251 -> 1942.00
11:10:26:262 -> 2113.00
11:10:26:272 -> 1963.00
11:10:26:283 -> 2082.00
11:10:26:293 -> 1975.00
11:10:26:303 -> 2076.00
11:10:26:313 -> 1968.00
11:10:26:324 -> 2055.00
11:10:26:334 -> 1989.00
11:10:26:344 -> 1993.00
11:10:26:355 -> 2032.00
11:10:26:365 -> 1972.00
11:10:26:375 -> 2068.00
11:10:26:386 -> 2007.00
11:10:26:396 -> 2100.00
11:10:26:407 -> 1892.00
11:10:26:417 -> 2257.00
11:10:26:427 -> 1928.00
11:10:26:437 -> 2122.00
11:10:26:448 -> 1959.00
11:10:26:458 -> 2108.00
11:10:26:468 -> 1935.00
11:10:26:479 -> 2141.00
11:10:26:489 -> 1977.00
11:10:26:499 -> 2164.00
11:10:26:510 -> 1904.00
11:10:26:520 -> 2110.00
11:10:26:531 -> 1875.00
11:10:26:541 -> 2108.00
11:10:26:551 -> 1877.00
11:10:26:561 -> 2112.00
11:10:26:587 -> 1953.00
11:10:26:588 -> 2094.00
11:10:26:620 -> 1966.00
11:10:26:620 -> 2099.00
11:10:26:620 -> 1972.00
11:10:26:623 -> 2073.00
11:10:26:633 -> 1970.00
11:10:26:644 -> 2086.00
11:10:26:654 -> 1969.00
11:10:26:664 -> 2000.00
11:10:26:674 -> 2036.00
11:10:26:685 -> 1982.00
11:10:26:695 -> 2055.00
11:10:26:706 -> 1989.00
11:10:26:716 -> 2104.00
11:10:26:726 -> 1954.00
11:10:26:741 -> 2087.00
11:10:26:747 -> 1951.00
11:10:26:757 -> 2058.00
11:10:26:768 -> 1953.00
11:10:26:778 -> 2061.00
11:10:26:789 -> 1971.00
11:10:26:800 -> 2141.00
11:10:26:810 -> 1918.00
11:10:26:841 -> 2100.00
11:10:26:831 -> 1895.00
11:10:26:820 -> 2104.00
11:10:26:851 -> 1891.00
11:10:26:862 -> 2114.00
11:10:26:876 -> 1953.00
11:10:26:882 -> 2094.00
11:10:26:893 -> 1970.00
11:10:26:903 -> 2113.00
11:10:26:913 -> 1981.00
11:10:26:924 -> 2042.00
11:10:26:934 -> 1993.00
11:10:26:944 -> 2024.00
11:10:26:955 -> 2039.00
11:10:26:969 -> 2005.00
11:10:26:975 -> 2066.00
11:10:26:986 -> 1991.00
11:10:26:996 -> 2113.00
11:10:27:006 -> 1900.00
11:10:27:016 -> 2068.00
11:10:27:027 -> 1965.00
11:10:27:038 -> 2100.00
11:10:27:048 -> 1969.00
11:10:27:058 -> 2111.00
11:10:27:068 -> 1968.00
11:10:27:079 -> 2167.00
11:10:27:105 -> 1956.00
11:10:27:107 -> 2159.00
11:10:27:109 -> 1915.00
11:10:27:120 -> 2112.00
11:10:27:130 -> 1893.00
11:10:27:140 -> 2098.00
11:10:27:151 -> 1882.00
11:10:27:161 -> 2092.00
11:10:27:172 -> 1936.00
11:10:27:183 -> 2107.00
11:10:27:192 -> 1940.00
11:10:27:202 -> 2084.00
11:10:27:213 -> 1966.00
11:10:27:223 -> 2132.00
11:10:27:233 -> 1955.00
11:10:27:243 -> 2089.00
11:10:27:253 -> 1992.00
11:10:27:264 -> 2035.00
11:10:27:274 -> 2010.00
11:10:27:285 -> 2020.00
11:10:27:295 -> 2014.00
11:10:27:306 -> 2023.00
11:10:27:316 -> 2042.00
11:10:27:326 -> 2009.00
11:10:27:336 -> 2084.00
11:10:27:346 -> 2029.00
11:10:27:357 -> 2053.00
11:10:27:369 -> 1900.00
11:10:27:377 -> 2077.00
11:10:27:388 -> 1945.00
11:10:27:398 -> 2068.00
11:10:27:408 -> 1957.00
11:10:27:419 -> 2161.00
11:10:27:429 -> 1939.00
11:10:27:439 -> 2167.00
11:10:27:450 -> 1942.00
11:10:27:460 -> 2143.00
11:10:27:470 -> 1903.00
11:10:27:481 -> 2099.00
11:10:27:514 -> 1888.00
11:10:27:519 -> 2092.00
11:10:27:519 -> 1886.00
11:10:27:522 -> 2077.00
11:10:27:532 -> 1950.00
11:10:27:547 -> 2076.00
11:10:27:553 -> 1943.00
11:10:27:563 -> 2093.00
11:10:27:574 -> 1943.00
11:10:27:584 -> 2047.00
11:10:27:594 -> 1950.00
11:10:27:605 -> 1997.00
11:10:27:620 -> 2020.00
11:10:27:625 -> 2023.00
11:10:27:635 -> 2060.00
11:10:27:646 -> 1985.00
11:10:27:656 -> 2102.00
11:10:27:666 -> 1980.00
11:10:27:677 -> 2091.00
11:10:27:687 -> 1945.00
11:10:27:697 -> 2104.00
11:10:27:708 -> 1931.00
11:10:27:718 -> 2108.00
11:10:27:728 -> 1940.00
11:10:27:739 -> 2111.00
11:10:27:749 -> 1947.00
11:10:27:759 -> 2096.00
11:10:27:769 -> 1916.00
11:10:27:780 -> 2146.00
11:10:27:790 -> 1861.00
11:10:27:800 -> 2117.00
11:10:27:811 -> 1850.00
11:10:27:821 -> 2127.00
11:10:27:831 -> 1908.00
11:10:27:845 -> 2092.00
11:10:27:852 -> 1942.00
11:10:27:863 -> 2152.00
11:10:27:873 -> 1944.00
11:10:27:883 -> 2101.00
11:10:27:893 -> 1985.00
11:10:27:904 -> 2078.00
11:10:27:914 -> 1963.00
11:10:27:924 -> 2056.00
11:10:27:934 -> 1996.00
11:10:27:945 -> 2011.00
11:10:27:955 -> 2037.00
11:10:27:966 -> 1985.00
11:10:27:976 -> 2063.00
11:10:27:986 -> 1970.00
11:10:27:996 -> 2099.00
11:10:28:007 -> 1953.00
11:10:28:017 -> 2118.00
11:10:28:027 -> 1902.00
11:10:28:037 -> 2104.00
11:10:28:048 -> 1934.00
11:10:28:058 -> 2112.00
11:10:28:069 -> 1942.00
11:10:28:079 -> 2153.00
11:10:28:089 -> 1940.00
11:10:28:100 -> 2143.00
11:10:28:110 -> 1942.00
11:10:28:138 -> 2152.00
11:10:28:139 -> 1895.00
11:10:28:141 -> 2132.00
11:10:28:151 -> 1899.00
11:10:28:161 -> 2111.00
11:10:28:172 -> 1912.00
11:10:28:182 -> 2090.00
11:10:28:192 -> 1952.00
11:10:28:203 -> 2065.00
11:10:28:213 -> 1934.00
11:10:28:224 -> 2071.00
11:10:28:234 -> 1973.00
11:10:28:244 -> 2031.00
11:10:28:255 -> 2004.00
11:10:28:265 -> 2014.00
11:10:28:280 -> 2027.00
11:10:28:285 -> 2042.00
11:10:28:296 -> 2052.00
11:10:28:306 -> 2035.00
11:10:28:316 -> 2090.00
11:10:28:327 -> 2000.00
11:10:28:337 -> 2060.00
11:10:28:347 -> 1980.00
11:10:28:358 -> 2100.00
11:10:28:392 -> 1942.00
11:10:28:392 -> 2074.00
11:10:28:392 -> 1956.00
11:10:28:399 -> 2125.00
11:10:28:409 -> 1944.00
11:10:28:419 -> 2077.00
11:10:28:431 -> 1932.00
11:10:28:440 -> 2150.00
11:10:28:450 -> 1894.00
11:10:28:460 -> 2136.00
11:10:28:471 -> 1874.00
11:10:28:481 -> 2102.00
11:10:28:491 -> 1890.00
11:10:28:502 -> 2118.00
11:10:28:512 -> 1923.00
11:10:28:522 -> 2122.00
11:10:28:533 -> 1969.00
11:10:28:543 -> 2086.00
11:10:28:553 -> 1956.00
11:10:28:564 -> 2070.00
11:10:28:574 -> 1972.00
11:10:28:584 -> 2057.00
11:10:28:594 -> 2002.00
11:10:28:605 -> 2044.00
11:10:28:615 -> 2013.00
11:10:28:626 -> 1999.00
11:10:28:636 -> 2057.00
11:10:28:663 -> 2008.00
11:10:28:664 -> 2063.00
11:10:28:666 -> 1958.00
11:10:28:677 -> 2050.00
11:10:28:687 -> 1967.00
11:10:28:700 -> 2076.00
11:10:28:709 -> 1892.00
11:10:28:719 -> 2116.00
11:10:28:729 -> 1975.00
11:10:28:740 -> 2138.00
11:10:28:750 -> 1957.00
11:10:28:760 -> 2124.00
11:10:28:771 -> 1865.00
11:10:28:781 -> 2147.00
11:10:28:791 -> 1902.00
11:10:28:802 -> 2086.00
11:10:28:813 -> 1967.00
11:10:28:823 -> 2139.00
11:10:28:834 -> 1952.00
11:10:28:844 -> 2115.00
11:10:28:854 -> 1963.00
11:10:28:864 -> 2038.00
11:10:28:875 -> 1971.00
11:10:28:885 -> 2026.00
11:10:28:895 -> 2010.00
11:10:28:906 -> 2018.00
11:10:28:916 -> 2050.00
11:10:28:927 -> 1954.00
11:10:28:937 -> 2049.00
11:10:28:947 -> 1991.00
11:10:28:958 -> 2079.00
11:10:28:968 -> 1975.00
11:10:28:978 -> 2099.00
11:10:28:988 -> 1927.00
11:10:28:999 -> 2080.00
11:10:29:009 -> 1890.00
11:10:29:019 -> 2133.00
11:10:29:029 -> 1919.00
11:10:29:040 -> 2128.00
11:10:29:050 -> 1891.00
11:10:29:060 -> 2116.00
11:10:29:071 -> 1865.00
11:10:29:083 -> 2109.00
11:10:29:092 -> 1907.00
11:10:29:102 -> 2087.00
11:10:29:112 -> 1886.00
11:10:29:122 -> 2128.00
11:10:29:133 -> 1925.00
11:10:29:143 -> 2156.00
11:10:29:154 -> 1976.00
11:10:29:182 -> 2023.00
11:10:29:183 -> 1970.00
11:10:29:185 -> 2034.00
11:10:29:195 -> 2064.00
11:10:29:206 -> 2022.00
11:10:29:216 -> 2021.00
11:10:29:227 -> 1956.00
11:10:29:237 -> 2078.00
11:10:29:247 -> 1945.00
11:10:29:281 -> 2079.00
11:10:29:282 -> 1917.00
11:10:29:282 -> 2097.00
11:10:29:289 -> 1927.00
11:10:29:299 -> 2133.00
11:10:29:310 -> 1948.00
11:10:29:320 -> 2135.00
11:10:29:333 -> 1910.00
11:10:29:341 -> 2164.00
11:10:29:351 -> 1864.00
11:10:29:362 -> 2122.00
11:10:29:372 -> 1923.00
11:10:29:382 -> 2121.00
11:10:29:393 -> 1924.00
11:10:29:403 -> 2122.00
11:10:29:413 -> 1979.00
11:10:29:424 -> 2110.00
11:10:29:434 -> 1938.00
11:10:29:444 -> 2045.00
11:10:29:455 -> 1982.00
11:10:29:465 -> 2073.00
11:10:29:475 -> 1976.00
11:10:29:486 -> 2056.00
11:10:29:496 -> 2002.00
11:10:29:506 -> 1985.00
11:10:29:517 -> 2111.00
11:10:29:527 -> 1953.00
11:10:29:537 -> 2087.00
11:10:29:549 -> 1986.00
11:10:29:559 -> 2112.00
11:10:29:568 -> 1922.00
11:10:29:579 -> 2094.00
11:10:29:589 -> 1948.00
11:10:29:599 -> 2146.00
11:10:29:610 -> 1995.00
11:10:29:621 -> 2135.00
11:10:29:631 -> 1894.00
11:10:29:641 -> 2124.00
11:10:29:651 -> 1889.00
11:10:29:662 -> 2113.00
11:10:29:672 -> 1888.00
11:10:29:698 -> 2107.00
11:10:29:698 -> 1943.00
11:10:29:703 -> 2080.00
11:10:29:713 -> 1937.00
11:10:29:724 -> 2091.00
11:10:29:734 -> 1977.00
11:10:29:744 -> 2085.00
11:10:29:754 -> 1965.00
11:10:29:765 -> 2087.00
11:10:29:775 -> 1997.00
11:10:29:785 -> 2038.00
11:10:29:797 -> 2027.00
11:10:29:806 -> 2009.00
11:10:29:816 -> 2097.00
11:10:29:827 -> 1985.00
11:10:29:837 -> 2040.00
11:10:29:847 -> 1913.00
11:10:29:858 -> 2030.00
11:10:29:868 -> 1962.00
11:10:29:878 -> 2117.00
11:10:29:889 -> 1946.00
11:10:29:899 -> 2067.00
11:10:29:909 -> 1941.00
11:10:29:920 -> 2164.00
11:10:29:930 -> 1963.00
11:10:29:941 -> 2147.00
11:10:29:951 -> 1899.00
11:10:29:961 -> 2084.00
11:10:29:971 -> 1849.00
11:10:29:982 -> 2117.00
11:10:29:992 -> 1904.00
11:10:30:002 -> 2120.00
11:10:30:012 -> 1921.00
11:10:30:023 -> 2088.00
11:10:30:034 -> 1957.00
11:10:30:044 -> 2170.00
11:10:30:054 -> 1932.00
11:10:30:064 -> 2026.00
11:10:30:101 -> 1971.00
11:10:30:102 -> 2102.00
11:10:30:102 -> 1989.00
11:10:30:105 -> 2023.00
11:10:30:116 -> 2081.00
11:10:30:126 -> 2014.00
11:10:30:137 -> 2081.00
11:10:30:147 -> 1963.00
11:10:30:157 -> 2174.00
11:10:30:167 -> 1981.00
11:10:30:178 -> 2107.00
11:10:30:188 -> 1958.00
11:10:30:213 -> 2116.00
11:10:30:213 -> 1936.00
11:10:30:219 -> 2079.00
11:10:30:229 -> 1919.00
11:10:30:240 -> 2123.00
11:10:30:250 -> 1935.00
11:10:30:260 -> 2175.00
11:10:30:271 -> 1863.00
11:10:30:281 -> 2069.00
11:10:30:291 -> 1771.00
11:10:30:304 -> 2175.00
11:10:30:312 -> 1884.00
11:10:30:322 -> 2087.00
11:10:30:333 -> 1921.00
11:10:30:343 -> 2026.00
11:10:30:353 -> 1907.00
11:10:30:364 -> 2003.00
11:10:30:374 -> 2008.00
11:10:30:384 -> 2101.00
11:10:30:394 -> 1938.00
11:10:30:405 -> 2059.00
11:10:30:415 -> 1999.00
11:10:30:425 -> 1929.00
11:10:30:436 -> 2018.00
11:10:30:446 -> 1955.00
11:10:30:456 -> 2039.00
11:10:30:470 -> 2034.00
11:10:30:477 -> 2093.00
11:10:30:487 -> 1979.00
11:10:30:497 -> 2123.00
11:10:30:508 -> 1931.00
11:10:30:518 -> 2069.00
11:10:30:529 -> 1880.00
11:10:30:539 -> 2119.00
11:10:30:549 -> 1951.00
11:10:30:560 -> 2121.00
11:10:30:570 -> 1986.00
11:10:30:580 -> 2150.00
11:10:30:590 -> 1946.00
11:10:30:603 -> 2122.00
11:10:30:611 -> 1814.00
11:10:30:621 -> 2130.00
11:10:30:631 -> 1798.00
11:10:30:642 -> 2219.00
11:10:30:652 -> 1942.00
11:10:30:662 -> 2106.00
11:10:30:673 -> 2043.00
11:10:30:683 -> 2128.00
11:10:30:694 -> 1944.00
11:10:30:704 -> 2060.00
11:10:30:729 -> 1983.00
11:10:30:729 -> 2036.00
11:10:30:735 -> 2071.00
11:10:30:745 -> 1983.00
11:10:30:756 -> 2027.00
11:10:30:766 -> 2017.00
11:10:30:776 -> 2045.00
11:10:30:787 -> 1925.00
11:10:30:797 -> 2087.00
11:10:30:807 -> 1982.00
11:10:30:818 -> 2455.00
11:10:30:828 -> 1930.00
11:10:30:838 -> 2087.00
11:10:30:849 -> 1907.00
11:10:30:859 -> 2110.00
11:10:30:869 -> 1947.00
11:10:30:881 -> 2131.00
11:10:30:890 -> 2017.00
11:10:30:901 -> 2133.00
11:10:30:911 -> 1923.00
11:10:30:921 -> 2051.00
11:10:30:931 -> 1904.00
11:10:30:942 -> 2094.00
11:10:30:971 -> 1961.00
11:10:30:971 -> 2092.00
11:10:30:973 -> 1921.00
11:10:30:983 -> 2097.00
11:10:30:993 -> 1951.00
11:10:31:004 -> 2104.00
11:10:31:014 -> 1995.00
11:10:31:024 -> 2090.00
11:10:31:034 -> 1987.00
11:10:31:045 -> 2052.00
11:10:31:055 -> 1958.00
11:10:31:065 -> 2043.00
11:10:31:075 -> 1995.00
11:10:31:086 -> 2051.00
11:10:31:096 -> 2091.00
11:10:31:106 -> 1983.00
11:10:31:116 -> 2073.00
11:10:31:127 -> 1971.00
11:10:31:137 -> 2091.00
11:10:31:148 -> 1883.00
11:10:31:158 -> 2088.00
11:10:31:168 -> 1971.00
11:10:31:179 -> 2116.00
11:10:31:189 -> 1983.00
11:10:31:200 -> 2104.00
11:10:31:210 -> 1901.00
11:10:31:220 -> 2156.00
11:10:31:244 -> 1964.00
11:10:31:245 -> 2090.00
11:10:31:251 -> 1887.00
11:10:31:261 -> 2140.00
11:10:31:271 -> 1865.00
11:10:31:282 -> 2139.00
11:10:31:293 -> 1900.00
11:10:31:302 -> 2124.00
11:10:31:315 -> 1939.00
11:10:31:323 -> 2133.00
11:10:31:333 -> 1952.00
11:10:31:343 -> 2121.00
11:10:31:354 -> 1943.00
11:10:31:364 -> 2079.00
11:10:31:374 -> 1943.00
11:10:31:384 -> 2053.00
11:10:31:395 -> 1939.00
11:10:31:405 -> 2036.00
11:10:31:415 -> 1999.00
11:10:31:426 -> 2067.00
11:10:31:436 -> 2042.00
11:10:31:448 -> 2020.00
11:10:31:457 -> 2084.00
11:10:31:467 -> 1939.00
11:10:31:478 -> 2049.00
11:10:31:488 -> 1958.00
11:10:31:499 -> 2092.00
11:10:31:509 -> 1923.00
11:10:31:519 -> 2108.00
11:10:31:530 -> 1956.00
11:10:31:541 -> 2131.00
11:10:31:550 -> 1933.00
11:10:31:561 -> 2086.00
11:10:31:571 -> 1872.00
11:10:31:581 -> 2155.00
11:10:31:592 -> 1873.00
11:10:31:602 -> 2125.00
11:10:31:612 -> 1853.00
11:10:31:623 -> 2121.00
11:10:31:634 -> 1906.00
11:10:31:644 -> 2106.00
11:10:31:657 -> 1950.00
11:10:31:664 -> 2038.00
11:10:31:674 -> 1957.00
11:10:31:686 -> 2047.00
11:10:31:695 -> 1988.00
11:10:31:706 -> 2042.00
11:10:31:716 -> 2035.00
11:10:31:726 -> 2015.00
11:10:31:736 -> 2075.00
11:10:31:761 -> 1990.00
11:10:31:762 -> 2127.00
11:10:31:767 -> 1980.00
11:10:31:778 -> 2074.00
11:10:31:789 -> 1961.00
11:10:31:798 -> 2033.00
11:10:31:809 -> 1942.00
11:10:31:819 -> 2099.00
11:10:31:829 -> 1960.00
11:10:31:840 -> 2124.00
11:10:31:850 -> 1971.00
11:10:31:861 -> 2122.00
11:10:31:871 -> 1898.00
11:10:31:881 -> 2181.00
11:10:31:892 -> 1840.00
11:10:31:902 -> 2117.00
11:10:31:912 -> 1908.00
11:10:31:946 -> 2107.00
11:10:31:947 -> 1948.00
11:10:31:947 -> 2158.00
11:10:31:953 -> 1931.00
11:10:31:964 -> 2116.00
11:10:31:974 -> 1911.00
11:10:31:987 -> 2086.00
11:10:31:994 -> 1966.00
11:10:32:005 -> 2045.00
11:10:32:015 -> 1965.00
11:10:32:025 -> 2024.00
11:10:32:037 -> 2018.00
11:10:32:046 -> 2009.00
11:10:32:057 -> 2072.00
11:10:32:067 -> 1892.00
11:10:32:078 -> 2054.00
11:10:32:088 -> 1970.00
11:10:32:098 -> 2086.00
11:10:32:109 -> 1925.00
11:10:32:119 -> 2111.00
11:10:32:129 -> 1951.00
11:10:32:139 -> 2137.00
11:10:32:149 -> 1955.00
11:10:32:160 -> 2152.00
11:10:32:170 -> 1951.00
11:10:32:181 -> 2115.00
11:10:32:191 -> 1854.00
11:10:32:201 -> 2140.00
11:10:32:212 -> 1834.00
11:10:32:222 -> 2150.00
11:10:32:232 -> 1904.00
11:10:32:245 -> 2104.00
11:10:32:253 -> 1920.00
11:10:32:279 -> 2120.00
11:10:32:281 -> 1898.00
11:10:32:284 -> 2074.00
11:10:32:294 -> 1929.00
11:10:32:304 -> 2068.00
11:10:32:315 -> 1960.00
11:10:32:325 -> 2029.00
11:10:32:346 -> 2007.00
11:10:32:336 -> 1975.00
11:10:32:357 -> 2085.00
11:10:32:367 -> 1994.00
11:10:32:380 -> 2035.00
11:10:32:387 -> 1975.00
11:10:32:398 -> 2072.00
11:10:32:408 -> 1936.00
11:10:32:418 -> 2078.00
11:10:32:429 -> 1940.00
11:10:32:439 -> 2133.00
11:10:32:449 -> 1923.00
11:10:32:459 -> 2124.00
11:10:32:470 -> 1949.00
11:10:32:481 -> 2122.00
11:10:32:491 -> 1902.00
11:10:32:501 -> 2158.00
11:10:32:512 -> 1868.00
11:10:32:522 -> 2125.00
11:10:32:532 -> 1920.00
11:10:32:542 -> 2121.00
11:10:32:553 -> 1941.00
11:10:32:564 -> 2131.00
11:10:32:574 -> 1991.00
11:10:32:584 -> 2088.00
11:10:32:595 -> 1955.00
11:10:32:605 -> 2046.00
11:10:32:615 -> 1973.00
11:10:32:626 -> 2054.00
11:10:32:636 -> 2020.00
11:10:32:646 -> 1995.00
11:10:32:657 -> 2063.00
11:10:32:667 -> 1979.00
11:10:32:677 -> 2055.00
11:10:32:687 -> 1966.00
11:10:32:698 -> 2048.00
11:10:32:708 -> 1945.00
11:10:32:719 -> 2084.00
11:10:32:729 -> 1949.00
11:10:32:739 -> 2087.00
11:10:32:749 -> 1943.00
11:10:32:799 -> 2174.00
11:10:32:800 -> 1932.00
11:10:32:800 -> 2105.00
11:10:32:800 -> 1875.00
11:10:32:801 -> 2131.00
11:10:32:812 -> 1860.00
11:10:32:822 -> 2116.00
11:10:32:832 -> 1892.00
11:10:32:842 -> 2144.00
11:10:32:853 -> 1915.00
11:10:32:863 -> 2136.00
11:10:32:873 -> 1938.00
11:10:32:886 -> 2079.00
11:10:32:894 -> 1963.00
11:10:32:904 -> 2067.00
11:10:32:915 -> 1953.00
11:10:32:925 -> 2063.00
11:10:32:935 -> 1987.00
11:10:32:945 -> 2055.00
11:10:32:956 -> 2000.00
11:10:32:966 -> 2039.00
11:10:32:976 -> 2017.00
11:10:32:986 -> 1992.00
11:10:32:997 -> 2076.00
11:10:33:007 -> 1970.00
11:10:33:018 -> 2143.00
11:10:33:028 -> 1939.00
11:10:33:038 -> 2127.00
11:10:33:049 -> 1942.00
11:10:33:059 -> 2067.00
11:10:33:069 -> 1951.00
11:10:33:080 -> 2118.00
11:10:33:090 -> 1950.00
11:10:33:103 -> 2136.00
11:10:33:111 -> 1923.00
11:10:33:121 -> 2138.00
11:10:33:131 -> 1885.00
11:10:33:142 -> 2127.00
11:10:33:152 -> 1878.00
11:10:33:162 -> 2090.00
11:10:33:172 -> 1889.00
11:10:33:183 -> 2156.00
11:10:33:193 -> 1917.00
11:10:33:203 -> 2121.00
11:10:33:214 -> 1956.00
11:10:33:224 -> 2116.00
11:10:33:234 -> 1973.00
11:10:33:251 -> 2079.00
11:10:33:255 -> 2005.00
11:10:33:266 -> 2039.00
11:10:33:276 -> 2007.00
11:10:33:286 -> 1999.00
11:10:33:297 -> 2079.00
11:10:33:321 -> 1975.00
11:10:33:322 -> 2075.00
11:10:33:328 -> 1953.00
11:10:33:338 -> 2057.00
11:10:33:349 -> 1957.00
11:10:33:359 -> 2134.00
11:10:33:369 -> 1975.00
11:10:33:381 -> 2109.00
11:10:33:390 -> 1957.00
11:10:33:400 -> 2152.00
11:10:33:410 -> 1934.00
11:10:33:421 -> 2162.00
11:10:33:431 -> 1888.00
11:10:33:442 -> 2126.00
11:10:33:452 -> 1889.00
11:10:33:463 -> 2103.00
11:10:33:473 -> 1932.00
11:10:33:483 -> 2154.00
11:10:33:494 -> 1946.00
11:10:33:504 -> 2064.00
11:10:33:514 -> 1954.00
11:10:33:525 -> 2073.00
11:10:33:535 -> 1957.00
11:10:33:545 -> 2038.00
11:10:33:555 -> 1992.00
11:10:33:566 -> 2048.00
11:10:33:576 -> 2066.00
11:10:33:620 -> 2005.00
11:10:33:621 -> 2053.00
11:10:33:621 -> 2000.00
11:10:33:621 -> 2101.00
11:10:33:634 -> 1985.00
11:10:33:640 -> 2178.00
11:10:33:650 -> 1968.00
11:10:33:661 -> 2150.00
11:10:33:671 -> 1885.00
11:10:33:681 -> 2141.00
11:10:33:692 -> 1875.00
11:10:33:702 -> 2109.00
11:10:33:713 -> 1901.00
11:10:33:722 -> 2088.00
11:10:33:733 -> 1936.00
11:10:33:743 -> 2096.00
11:10:33:754 -> 1956.00
11:10:33:764 -> 2113.00
11:10:33:774 -> 1945.00
11:10:33:785 -> 2075.00
11:10:33:795 -> 1970.00
11:10:33:805 -> 2048.00
11:10:33:816 -> 1989.00
11:10:33:841 -> 2007.00
11:10:33:841 -> 2049.00
11:10:33:847 -> 2018.00
11:10:33:857 -> 2035.00
11:10:33:868 -> 1986.00
11:10:33:877 -> 2076.00
11:10:33:888 -> 1957.00
11:10:33:898 -> 2049.00
11:10:33:908 -> 1917.00
11:10:33:919 -> 2086.00
11:10:33:929 -> 1910.00
11:10:33:939 -> 2135.00
11:10:33:949 -> 1971.00
11:10:33:960 -> 2024.00
11:10:33:970 -> 1943.00
11:10:33:980 -> 2157.00
11:10:33:991 -> 1909.00
11:10:34:001 -> 2157.00
11:10:34:011 -> 1852.00
11:10:34:025 -> 2124.00
11:10:34:032 -> 1878.00
11:10:34:042 -> 2097.00
11:10:34:052 -> 1897.00
11:10:34:063 -> 2146.00
11:10:34:073 -> 1935.00
11:10:34:084 -> 2120.00
11:10:34:093 -> 1942.00
11:10:34:104 -> 2073.00
11:10:34:115 -> 1904.00
11:10:34:125 -> 2067.00
11:10:34:135 -> 1934.00
11:10:34:146 -> 2041.00
11:10:34:156 -> 2011.00
11:10:34:166 -> 2007.00
11:10:34:177 -> 2043.00
11:10:34:187 -> 2016.00
11:10:34:197 -> 2079.00
11:10:34:207 -> 1993.00
11:10:34:218 -> 2111.00
11:10:34:228 -> 1980.00
11:10:34:238 -> 2363.00
11:10:34:249 -> 1966.00
11:10:34:260 -> 2094.00
11:10:34:269 -> 1985.00
11:10:34:280 -> 2094.00
11:10:34:290 -> 1912.00
11:10:34:300 -> 2204.00
11:10:34:312 -> 1915.00
11:10:34:321 -> 2201.00
11:10:34:331 -> 1917.00
11:10:34:358 -> 2092.00
11:10:34:359 -> 1812.00
11:10:34:363 -> 2109.00
11:10:34:373 -> 1946.00
11:10:34:383 -> 2138.00
11:10:34:394 -> 1980.00
11:10:34:405 -> 2019.00
11:10:34:415 -> 1997.00
11:10:34:425 -> 2136.00
11:10:34:435 -> 1969.00
11:10:34:445 -> 2010.00
11:10:34:459 -> 2011.00
11:10:34:466 -> 2007.00
11:10:34:477 -> 2023.00
11:10:34:487 -> 2066.00
11:10:34:497 -> 1885.00
11:10:34:538 -> 2037.00
11:10:34:538 -> 1977.00
11:10:34:538 -> 1867.00
11:10:34:538 -> 2090.00
11:10:34:549 -> 1923.00
11:10:34:559 -> 2108.00
11:10:34:569 -> 1901.00
11:10:34:580 -> 2211.00
11:10:34:591 -> 1892.00
11:10:34:601 -> 2174.00
11:10:34:611 -> 1932.00
11:10:34:621 -> 2157.00
11:10:34:632 -> 1856.00
11:10:34:644 -> 2058.00
11:10:34:652 -> 1899.00
11:10:34:663 -> 2154.00
11:10:34:673 -> 1936.00
11:10:34:683 -> 2134.00
11:10:34:693 -> 1945.00
11:10:34:704 -> 2097.00
11:10:34:714 -> 1855.00
11:10:34:724 -> 2108.00
11:10:34:735 -> 1993.00
11:10:34:745 -> 2073.00
11:10:34:755 -> 1981.00
11:10:34:766 -> 2104.00
11:10:34:776 -> 2055.00
11:10:34:786 -> 1927.00
11:10:34:797 -> 1978.00
11:10:34:807 -> 1946.00
11:10:34:817 -> 2042.00
11:10:34:828 -> 1941.00
11:10:34:838 -> 2040.00
11:10:34:848 -> 1906.00
11:10:34:874 -> 2082.00
11:10:34:875 -> 1919.00
11:10:34:879 -> 2048.00
11:10:34:889 -> 1953.00
11:10:34:900 -> 2175.00
11:10:34:911 -> 1978.00
11:10:34:921 -> 2075.00
11:10:34:931 -> 1938.00
11:10:34:941 -> 2126.00
11:10:34:951 -> 1895.00
11:10:34:962 -> 2116.00
11:10:34:972 -> 1957.00
11:10:34:983 -> 2126.00
11:10:34:993 -> 1911.00
11:10:35:003 -> 2097.00
11:10:35:013 -> 1928.00
11:10:35:024 -> 2127.00
11:10:35:034 -> 1959.00
11:10:35:044 -> 2102.00
11:10:35:055 -> 1939.00
11:10:35:065 -> 2048.00
11:10:35:075 -> 1948.00
11:10:35:086 -> 2151.00
11:10:35:096 -> 1946.00
11:10:35:106 -> 2027.00
11:10:35:116 -> 2012.00
11:10:35:127 -> 2014.00
11:10:35:137 -> 2067.00
11:10:35:147 -> 2029.00
11:10:35:158 -> 2095.00
11:10:35:168 -> 1900.00
11:10:35:179 -> 2104.00
11:10:35:189 -> 1996.00
11:10:35:199 -> 2067.00
11:10:35:210 -> 1940.00
11:10:35:220 -> 2075.00
11:10:35:230 -> 1971.00
11:10:35:240 -> 2125.00
11:10:35:251 -> 1927.00
11:10:35:261 -> 2131.00
11:10:35:271 -> 1938.00
11:10:35:282 -> 2135.00
11:10:35:292 -> 1877.00
11:10:35:304 -> 2158.00
11:10:35:313 -> 1907.00
11:10:35:323 -> 2119.00
11:10:35:333 -> 1891.00
11:10:35:344 -> 2098.00
11:10:35:354 -> 1958.00
11:10:35:365 -> 2096.00
11:10:35:389 -> 1918.00
11:10:35:390 -> 2097.00
11:10:35:396 -> 1935.00
11:10:35:406 -> 2088.00
11:10:35:416 -> 1973.00
11:10:35:426 -> 1999.00
11:10:35:437 -> 2090.00
11:10:35:447 -> 1946.00
11:10:35:457 -> 2014.00
11:10:35:468 -> 2028.00
11:10:35:478 -> 2082.00
11:10:35:488 -> 1997.00
11:10:35:499 -> 2043.00
11:10:35:509 -> 1959.00
11:10:35:519 -> 2102.00
11:10:35:530 -> 1921.00
11:10:35:540 -> 2096.00
11:10:35:551 -> 1900.00
11:10:35:594 -> 2117.00
11:10:35:595 -> 1961.00
11:10:35:595 -> 2161.00
11:10:35:595 -> 1879.00
11:10:35:602 -> 2172.00
11:10:35:612 -> 1909.00
11:10:35:622 -> 2163.00
11:10:35:633 -> 1909.00
11:10:35:643 -> 2150.00
11:10:35:653 -> 1882.00
11:10:35:664 -> 2151.00
11:10:35:674 -> 1890.00
11:10:35:684 -> 2114.00
11:10:35:695 -> 1915.00
11:10:35:705 -> 2070.00
11:10:35:715 -> 1917.00
11:10:35:726 -> 2073.00
11:10:35:736 -> 1955.00
11:10:35:746 -> 2070.00
11:10:35:756 -> 1970.00
11:10:35:767 -> 2072.00
11:10:35:777 -> 1993.00
11:10:35:788 -> 2013.00
11:10:35:798 -> 2073.00
11:10:35:808 -> 1984.00
11:10:35:818 -> 2076.00
11:10:35:829 -> 1956.00
11:10:35:839 -> 2088.00
11:10:35:849 -> 1906.00
11:10:35:860 -> 2073.00
11:10:35:873 -> 1955.00
11:10:35:880 -> 2101.00
11:10:35:906 -> 1888.00
11:10:35:907 -> 2176.00
11:10:35:911 -> 1919.00
11:10:35:922 -> 2168.00
11:10:35:932 -> 1874.00
11:10:35:942 -> 2177.00
11:10:35:952 -> 1863.00
11:10:35:963 -> 2166.00
11:10:35:973 -> 1906.00
11:10:35:983 -> 2109.00
11:10:35:993 -> 1892.00
11:10:36:009 -> 2126.00
11:10:36:014 -> 1932.00
11:10:36:024 -> 2091.00
11:10:36:035 -> 1944.00
11:10:36:045 -> 2082.00
11:10:36:056 -> 1939.00
11:10:36:066 -> 2076.00
11:10:36:076 -> 1979.00
11:10:36:086 -> 2051.00
11:10:36:097 -> 2027.00
11:10:36:107 -> 1971.00
11:10:36:117 -> 2038.00
11:10:36:128 -> 2007.00
11:10:36:138 -> 2070.00
11:10:36:148 -> 1991.00
11:10:36:159 -> 2047.00
11:10:36:169 -> 1943.00
11:10:36:183 -> 2105.00
11:10:36:190 -> 1935.00
11:10:36:200 -> 2106.00
11:10:36:210 -> 1914.00
11:10:36:220 -> 2127.00
11:10:36:231 -> 1942.00
11:10:36:241 -> 2122.00
11:10:36:251 -> 1949.00
11:10:36:262 -> 2190.00
11:10:36:272 -> 1884.00
11:10:36:282 -> 2170.00
11:10:36:293 -> 1843.00
11:10:36:303 -> 2152.00
11:10:36:313 -> 1890.00
11:10:36:324 -> 2119.00
11:10:36:334 -> 1916.00
11:10:36:345 -> 2128.00
11:10:36:355 -> 1945.00
11:10:36:365 -> 2104.00
11:10:36:376 -> 1943.00
11:10:36:386 -> 2076.00
11:10:36:396 -> 1959.00
11:10:36:422 -> 2057.00
11:10:36:422 -> 2088.00
11:10:36:455 -> 1984.00
11:10:36:456 -> 2069.00
11:10:36:456 -> 1929.00
11:10:36:459 -> 2090.00
11:10:36:470 -> 1941.00
11:10:36:480 -> 2071.00
11:10:36:490 -> 1958.00
11:10:36:500 -> 2098.00
11:10:36:511 -> 1905.00
11:10:36:521 -> 2140.00
11:10:36:532 -> 1945.00
11:10:36:542 -> 2165.00
11:10:36:552 -> 1891.00
11:10:36:563 -> 2166.00
11:10:36:573 -> 1871.00
11:10:36:584 -> 2124.00
11:10:36:594 -> 1897.00
11:10:36:604 -> 2153.00
11:10:36:614 -> 1925.00
11:10:36:625 -> 2094.00
11:10:36:636 -> 1934.00
11:10:36:646 -> 2079.00
11:10:36:656 -> 1964.00
11:10:36:666 -> 2055.00
11:10:36:677 -> 1976.00
11:10:36:687 -> 2007.00
11:10:36:699 -> 2001.00
11:10:36:708 -> 1999.00
11:10:36:718 -> 2064.00
11:10:36:728 -> 2000.00
11:10:36:739 -> 2026.00
11:10:36:749 -> 1973.00
11:10:36:759 -> 2094.00
11:10:36:770 -> 1946.00
11:10:36:780 -> 2110.00
11:10:36:790 -> 1901.00
11:10:36:801 -> 2154.00
11:10:36:811 -> 1932.00
11:10:36:821 -> 2157.00
11:10:36:832 -> 1897.00
11:10:36:842 -> 2133.00
11:10:36:853 -> 1896.00
11:10:36:863 -> 2171.00
11:10:36:873 -> 1867.00
11:10:36:883 -> 2135.00
11:10:36:894 -> 1895.00
11:10:36:904 -> 2122.00
11:10:36:914 -> 1918.00
11:10:36:939 -> 2115.00
11:10:36:940 -> 1933.00
11:10:36:945 -> 2108.00
11:10:36:955 -> 1946.00
11:10:36:966 -> 2093.00
11:10:36:976 -> 1984.00
11:10:36:986 -> 2077.00
11:10:36:997 -> 1967.00
11:10:37:007 -> 2012.00
11:10:37:017 -> 1999.00
11:10:37:028 -> 1981.00
11:10:37:038 -> 1972.00
11:10:37:048 -> 2018.00
11:10:37:058 -> 2088.00
11:10:37:069 -> 1885.00
11:10:37:080 -> 2089.00
11:10:37:089 -> 1874.00
11:10:37:100 -> 2101.00
11:10:37:110 -> 1946.00
11:10:37:120 -> 2092.00
11:10:37:131 -> 1931.00
11:10:37:141 -> 2140.00
11:10:37:152 -> 1960.00
11:10:37:162 -> 2184.00
11:10:37:172 -> 1918.00
11:10:37:182 -> 2077.00
11:10:37:193 -> 1847.00
11:10:37:203 -> 2135.00
11:10:37:213 -> 2015.00
11:10:37:223 -> 2141.00
11:10:37:234 -> 1818.00
11:10:37:244 -> 2129.00
11:10:37:255 -> 2004.00
11:10:37:265 -> 1992.00
11:10:37:299 -> 1950.00
11:10:37:302 -> 2085.00
11:10:37:302 -> 2050.00
11:10:37:306 -> 2068.00
11:10:37:316 -> 1981.00
11:10:37:326 -> 2068.00
11:10:37:337 -> 1996.00
11:10:37:347 -> 1987.00
11:10:37:357 -> 2062.00
11:10:37:368 -> 1985.00
11:10:37:378 -> 2129.00
11:10:37:390 -> 1918.00
11:10:37:399 -> 2061.00
11:10:37:409 -> 1938.00
11:10:37:419 -> 2037.00
11:10:37:430 -> 1911.00
11:10:37:461 -> 1996.00
11:10:37:461 -> 1910.00
11:10:37:461 -> 2097.00
11:10:37:471 -> 1921.00
11:10:37:481 -> 2114.00
11:10:37:492 -> 1911.00
11:10:37:502 -> 2143.00
11:10:37:512 -> 1913.00
11:10:37:523 -> 2148.00
11:10:37:533 -> 1871.00
11:10:37:543 -> 2132.00
11:10:37:554 -> 1900.00
11:10:37:564 -> 2110.00
11:10:37:574 -> 1923.00
11:10:37:585 -> 2104.00
11:10:37:595 -> 2031.00
11:10:37:605 -> 2010.00
11:10:37:616 -> 1971.00
11:10:37:626 -> 2087.00
11:10:37:636 -> 2012.00
11:10:37:647 -> 2056.00
11:10:37:657 -> 2048.00
11:10:37:668 -> 2013.00
11:10:37:678 -> 2058.00
11:10:37:688 -> 2043.00
11:10:37:698 -> 2119.00
11:10:37:709 -> 1958.00
11:10:37:719 -> 2080.00
11:10:37:730 -> 1993.00
11:10:37:740 -> 2116.00
11:10:37:750 -> 1943.00
11:10:37:760 -> 2081.00
11:10:37:771 -> 1949.00
11:10:37:781 -> 2132.00
11:10:37:792 -> 1951.00
11:10:37:802 -> 2134.00
11:10:37:812 -> 1849.00
11:10:37:823 -> 2154.00
11:10:37:833 -> 1864.00
11:10:37:843 -> 2130.00
11:10:37:858 -> 1937.00
11:10:37:864 -> 2111.00
11:10:37:874 -> 1897.00
11:10:37:884 -> 2139.00
11:10:37:895 -> 1925.00
11:10:37:905 -> 2148.00
11:10:37:915 -> 1935.00
11:10:37:926 -> 2112.00
11:10:37:936 -> 1977.00
11:10:37:947 -> 2044.00
11:10:37:957 -> 1976.00
11:10:37:984 -> 2000.00
11:10:37:986 -> 2003.00
11:10:37:988 -> 1965.00
11:10:37:998 -> 2089.00
11:10:38:008 -> 1966.00
11:10:38:024 -> 2088.00
11:10:38:029 -> 1969.00
11:10:38:040 -> 2075.00
11:10:38:050 -> 1977.00
11:10:38:060 -> 2097.00
11:10:38:070 -> 1964.00
11:10:38:081 -> 2114.00
11:10:38:091 -> 1934.00
11:10:38:101 -> 2156.00
11:10:38:112 -> 1936.00
11:10:38:122 -> 2132.00
11:10:38:132 -> 1881.00
11:10:38:142 -> 2181.00
11:10:38:153 -> 1908.00
11:10:38:186 -> 2081.00
11:10:38:188 -> 1934.00
11:10:38:188 -> 2147.00
11:10:38:194 -> 1911.00
11:10:38:205 -> 2112.00
11:10:38:215 -> 1900.00
11:10:38:226 -> 2145.00
11:10:38:236 -> 1939.00
11:10:38:246 -> 2090.00
11:10:38:256 -> 1958.00
11:10:38:267 -> 2044.00
11:10:38:277 -> 1992.00
11:10:38:287 -> 2024.00
11:10:38:298 -> 2046.00
11:10:38:308 -> 2048.00
11:10:38:318 -> 2049.00
11:10:38:328 -> 1997.00
11:10:38:339 -> 2057.00
11:10:38:349 -> 1957.00
11:10:38:360 -> 2122.00
11:10:38:370 -> 1913.00
11:10:38:380 -> 2121.00
11:10:38:391 -> 1914.00
11:10:38:401 -> 2141.00
11:10:38:411 -> 1914.00
11:10:38:421 -> 2183.00
11:10:38:432 -> 1889.00
11:10:38:442 -> 2204.00
11:10:38:452 -> 1846.00
11:10:38:463 -> 2177.00
11:10:38:473 -> 1871.00
11:10:38:483 -> 2125.00
11:10:38:501 -> 1884.00
11:10:38:504 -> 2145.00
11:10:38:518 -> 1877.00
11:10:38:524 -> 2135.00
11:10:38:535 -> 1907.00
11:10:38:545 -> 2115.00
11:10:38:556 -> 1930.00
11:10:38:566 -> 2101.00
11:10:38:576 -> 2004.00
11:10:38:587 -> 2066.00
11:10:38:597 -> 1951.00
11:10:38:608 -> 1968.00
11:10:38:618 -> 2003.00
11:10:38:628 -> 2016.00
11:10:38:643 -> 1990.00
11:10:38:649 -> 1985.00
11:10:38:659 -> 2235.00
11:10:38:669 -> 1969.00
11:10:38:680 -> 2119.00
11:10:38:690 -> 1932.00
11:10:38:700 -> 2097.00
11:10:38:711 -> 1921.00
11:10:38:721 -> 2169.00
11:10:38:732 -> 1879.00
11:10:38:742 -> 2158.00
11:10:38:752 -> 1844.00
11:10:38:762 -> 2176.00
11:10:38:773 -> 1869.00
11:10:38:783 -> 2129.00
11:10:38:794 -> 1879.00
11:10:38:804 -> 2155.00
11:10:38:814 -> 1862.00
11:10:38:824 -> 2131.00
11:10:38:835 -> 1918.00
11:10:38:845 -> 2126.00
11:10:38:855 -> 1923.00
11:10:38:865 -> 2128.00
11:10:38:876 -> 1931.00
11:10:38:886 -> 2110.00
11:10:38:896 -> 1940.00
11:10:38:907 -> 2099.00
11:10:38:917 -> 1980.00
11:10:38:927 -> 2014.00
11:10:38:938 -> 2053.00
11:10:38:948 -> 1994.00
11:10:38:987 -> 2080.00
11:10:38:988 -> 1977.00
11:10:38:988 -> 2067.00
11:10:38:989 -> 1928.00
11:10:39:000 -> 2117.00
11:10:39:024 -> 1934.00
11:10:39:024 -> 2119.00
11:10:39:031 -> 1955.00
11:10:39:041 -> 2130.00
11:10:39:051 -> 1924.00
11:10:39:062 -> 2155.00
11:10:39:072 -> 1867.00
11:10:39:082 -> 2175.00
11:10:39:092 -> 1887.00
11:10:39:103 -> 2196.00
11:10:39:113 -> 1877.00
11:10:39:123 -> 2128.00
11:10:39:134 -> 1884.00
11:10:39:144 -> 2134.00
11:10:39:154 -> 1971.00
11:10:39:165 -> 2143.00
11:10:39:175 -> 1927.00
11:10:39:185 -> 2110.00
11:10:39:196 -> 1924.00
11:10:39:206 -> 2050.00
11:10:39:217 -> 1973.00
11:10:39:227 -> 2052.00
11:10:39:237 -> 1961.00
11:10:39:247 -> 2050.00
11:10:39:258 -> 2040.00
11:10:39:268 -> 2060.00
11:10:39:278 -> 2060.00
11:10:39:290 -> 1961.00
11:10:39:299 -> 2087.00
11:10:39:309 -> 1968.00
11:10:39:320 -> 2101.00
11:10:39:330 -> 1946.00
11:10:39:340 -> 2089.00
11:10:39:351 -> 1925.00
11:10:39:361 -> 2153.00
11:10:39:371 -> 1942.00
11:10:39:382 -> 2238.00
11:10:39:392 -> 1873.00
11:10:39:402 -> 2176.00
11:10:39:413 -> 1867.00
11:10:39:423 -> 2196.00
11:10:39:433 -> 1884.00
11:10:39:443 -> 2166.00
11:10:39:454 -> 1882.00
11:10:39:464 -> 2151.00
11:10:39:475 -> 1911.00
11:10:39:485 -> 2171.00
11:10:39:495 -> 1898.00
11:10:39:506 -> 2105.00
11:10:39:516 -> 1928.00
11:10:39:543 -> 2093.00
11:10:39:544 -> 1958.00
11:10:39:547 -> 2046.00
11:10:39:557 -> 1987.00
11:10:39:567 -> 2010.00
11:10:39:578 -> 2057.00
11:10:39:588 -> 1980.00
11:10:39:598 -> 2055.00
11:10:39:609 -> 1980.00
11:10:39:619 -> 2061.00
11:10:39:629 -> 1943.00
11:10:39:640 -> 2114.00
11:10:39:650 -> 1933.00
11:10:39:660 -> 2169.00
11:10:39:671 -> 1898.00
11:10:39:681 -> 2141.00
11:10:39:691 -> 1919.00
11:10:39:702 -> 2129.00
11:10:39:712 -> 1931.00
11:10:39:722 -> 2155.00
11:10:39:733 -> 1873.00
11:10:39:743 -> 2142.00
11:10:39:753 -> 1868.00
11:10:39:764 -> 2159.00
11:10:39:774 -> 1902.00
11:10:39:784 -> 2121.00
11:10:39:794 -> 1869.00
11:10:39:805 -> 2126.00
11:10:39:815 -> 1916.00
11:10:39:825 -> 2094.00
11:10:39:866 -> 1921.00
11:10:39:867 -> 2125.00
11:10:39:867 -> 1955.00
11:10:39:867 -> 2175.00
11:10:39:877 -> 1995.00
11:10:39:887 -> 2043.00
11:10:39:897 -> 2052.00
11:10:39:908 -> 2005.00
11:10:39:918 -> 2068.00
11:10:39:928 -> 1954.00
11:10:39:939 -> 2072.00
11:10:39:949 -> 1982.00
11:10:39:960 -> 2087.00
11:10:39:969 -> 1902.00
11:10:39:980 -> 2101.00
11:10:39:990 -> 1860.00
11:10:40:000 -> 2079.00
11:10:40:011 -> 1957.00
11:10:40:021 -> 2145.00
11:10:40:031 -> 1920.00
11:10:40:042 -> 2077.00
11:10:40:064 -> 1897.00
11:10:40:065 -> 2158.00
11:10:40:073 -> 1882.00
11:10:40:083 -> 2190.00
11:10:40:094 -> 1936.00
11:10:40:104 -> 2128.00
11:10:40:114 -> 1939.00
11:10:40:125 -> 2143.00
11:10:40:135 -> 1944.00
11:10:40:145 -> 2153.00
11:10:40:155 -> 1882.00
11:10:40:166 -> 2106.00
11:10:40:176 -> 2008.00
11:10:40:187 -> 2057.00
11:10:40:197 -> 1974.00
11:10:40:208 -> 1904.00
11:10:40:218 -> 1947.00
11:10:40:228 -> 2022.00
11:10:40:238 -> 2123.00
11:10:40:249 -> 2017.00
11:10:40:259 -> 2058.00
11:10:40:269 -> 2020.00
11:10:40:280 -> 2057.00
11:10:40:290 -> 1984.00
11:10:40:301 -> 2050.00
11:10:40:311 -> 2000.00
11:10:40:321 -> 2128.00
11:10:40:331 -> 1890.00
11:10:40:342 -> 1952.00
11:10:40:352 -> 1942.00
11:10:40:362 -> 2225.00
11:10:40:373 -> 1899.00
11:10:40:383 -> 2174.00
11:10:40:393 -> 1841.00
11:10:40:404 -> 2110.00
11:10:40:414 -> 1881.00
11:10:40:424 -> 2243.00
11:10:40:434 -> 1887.00
11:10:40:445 -> 2197.00
11:10:40:455 -> 1958.00
11:10:40:465 -> 2098.00
11:10:40:476 -> 1926.00
11:10:40:486 -> 2109.00
11:10:40:496 -> 1940.00
11:10:40:507 -> 2090.00
11:10:40:517 -> 2021.00
11:10:40:527 -> 2108.00
11:10:40:538 -> 2072.00
11:10:40:548 -> 1951.00
11:10:40:558 -> 2027.00
11:10:40:589 -> 2053.00
11:10:40:590 -> 2082.00
11:10:40:590 -> 1897.00
11:10:40:600 -> 2040.00
11:10:40:610 -> 1963.00
11:10:40:620 -> 2028.00
11:10:40:631 -> 1919.00
11:10:40:641 -> 2154.00
11:10:40:672 -> 1935.00
11:10:40:673 -> 2148.00
11:10:40:673 -> 1972.00
11:10:40:682 -> 2182.00
11:10:40:692 -> 1941.00
11:10:40:703 -> 2178.00
11:10:40:717 -> 1927.00
11:10:40:723 -> 2174.00
11:10:40:734 -> 1815.00
11:10:40:744 -> 2129.00
11:10:40:754 -> 1934.00
11:10:40:765 -> 2101.00
11:10:40:775 -> 1927.00
11:10:40:785 -> 2052.00
11:10:40:796 -> 1950.00
11:10:40:806 -> 2074.00
11:10:40:817 -> 2088.00
11:10:40:827 -> 1997.00
11:10:40:837 -> 2034.00
11:10:40:848 -> 2040.00
11:10:40:858 -> 2029.00
11:10:40:868 -> 1960.00
11:10:40:879 -> 2052.00
11:10:40:889 -> 2039.00
11:10:40:899 -> 2040.00
11:10:40:909 -> 1955.00
11:10:40:920 -> 2191.00
11:10:40:930 -> 1972.00
11:10:40:940 -> 2100.00
11:10:40:950 -> 1927.00
11:10:40:961 -> 2124.00
11:10:40:971 -> 1915.00
11:10:40:981 -> 2157.00
11:10:40:992 -> 1907.00
11:10:41:002 -> 2181.00
11:10:41:012 -> 1887.00
11:10:41:023 -> 2173.00
11:10:41:033 -> 1886.00
11:10:41:043 -> 2167.00
11:10:41:054 -> 1861.00
11:10:41:064 -> 2139.00
11:10:41:075 -> 1925.00
11:10:41:106 -> 2118.00
11:10:41:106 -> 1912.00
11:10:41:106 -> 2134.00
11:10:41:116 -> 1967.00
11:10:41:126 -> 2098.00
11:10:41:136 -> 1987.00
11:10:41:147 -> 2007.00
11:10:41:158 -> 1983.00
11:10:41:168 -> 2013.00
11:10:41:178 -> 2038.00
11:10:41:190 -> 2007.00
11:10:41:200 -> 2097.00
11:10:41:210 -> 1965.00
11:10:41:221 -> 2118.00
11:10:41:231 -> 1931.00
11:10:41:242 -> 2162.00
11:10:41:252 -> 1851.00
11:10:41:263 -> 2212.00
11:10:41:273 -> 1885.00
11:10:41:285 -> 2122.00
11:10:41:293 -> 1868.00
11:10:41:304 -> 2142.00
11:10:41:314 -> 1904.00
11:10:41:325 -> 2083.00
11:10:41:335 -> 1920.00
11:10:41:346 -> 2119.00
11:10:41:356 -> 1906.00
11:10:41:366 -> 2094.00
11:10:41:381 -> 1950.00
11:10:41:387 -> 2062.00
11:10:41:397 -> 1980.00
11:10:41:407 -> 1960.00
11:10:41:418 -> 2001.00
11:10:41:428 -> 1992.00
11:10:41:438 -> 2046.00
11:10:41:449 -> 1962.00
11:10:41:459 -> 2060.00
11:10:41:469 -> 1971.00
11:10:41:480 -> 2118.00
11:10:41:490 -> 1944.00
11:10:41:500 -> 2089.00
11:10:41:510 -> 1974.00
11:10:41:521 -> 2102.00
11:10:41:531 -> 1920.00
11:10:41:542 -> 2162.00
11:10:41:552 -> 1936.00
11:10:41:562 -> 2194.00
11:10:41:572 -> 1871.00
11:10:41:584 -> 2157.00
11:10:41:593 -> 1885.00
11:10:41:603 -> 2155.00
11:10:41:630 -> 1841.00
11:10:41:631 -> 2178.00
11:10:41:634 -> 1899.00
11:10:41:645 -> 2132.00
11:10:41:655 -> 1910.00
11:10:41:666 -> 2136.00
11:10:41:676 -> 1926.00
11:10:41:686 -> 2117.00
11:10:41:697 -> 1966.00
11:10:41:707 -> 2048.00
11:10:41:717 -> 1978.00
11:10:41:728 -> 2052.00
11:10:41:739 -> 2036.00
11:10:41:749 -> 1993.00
11:10:41:759 -> 2068.00
11:10:41:769 -> 2002.00
11:10:41:779 -> 2104.00
11:10:41:795 -> 1975.00
11:10:41:825 -> 2124.00
11:10:41:826 -> 1930.00
11:10:41:826 -> 2099.00
11:10:41:831 -> 1901.00
11:10:41:841 -> 2156.00
11:10:41:851 -> 1953.00
11:10:41:862 -> 2153.00
11:10:41:872 -> 1869.00
11:10:41:882 -> 2170.00
11:10:41:893 -> 1884.00
11:10:41:903 -> 2181.00
11:10:41:913 -> 1861.00
11:10:41:924 -> 2175.00
11:10:41:934 -> 1884.00
11:10:41:944 -> 2128.00
11:10:41:955 -> 1927.00
11:10:41:965 -> 2113.00
11:10:41:975 -> 1973.00
11:10:41:986 -> 2111.00
11:10:41:996 -> 1927.00
11:10:42:006 -> 2119.00
11:10:42:016 -> 1949.00
11:10:42:027 -> 2063.00
11:10:42:037 -> 1962.00
11:10:42:048 -> 2038.00
11:10:42:058 -> 2022.00
11:10:42:068 -> 2011.00
11:10:42:079 -> 2031.00
11:10:42:089 -> 1988.00
11:10:42:099 -> 2034.00
11:10:42:109 -> 1964.00
11:10:42:120 -> 2066.00
11:10:42:145 -> 1967.00
11:10:42:146 -> 2089.00
11:10:42:150 -> 1980.00
11:10:42:161 -> 2097.00
11:10:42:172 -> 1920.00
11:10:42:181 -> 2145.00
11:10:42:192 -> 1910.00
11:10:42:202 -> 2171.00
11:10:42:212 -> 1879.00
11:10:42:223 -> 2225.00
11:10:42:233 -> 1883.00
11:10:42:243 -> 2153.00
11:10:42:254 -> 1876.00
11:10:42:265 -> 2157.00
11:10:42:274 -> 1951.00
11:10:42:289 -> 2158.00
11:10:42:295 -> 1885.00
11:10:42:305 -> 2084.00
11:10:42:316 -> 1897.00
11:10:42:326 -> 2086.00
11:10:42:336 -> 1954.00
11:10:42:346 -> 2090.00
11:10:42:356 -> 1936.00
11:10:42:367 -> 2051.00
11:10:42:377 -> 1978.00
11:10:42:388 -> 2049.00
11:10:42:399 -> 2017.00
11:10:42:408 -> 2008.00
11:10:42:418 -> 2060.00
11:10:42:429 -> 2002.00
11:10:42:439 -> 2056.00
11:10:42:449 -> 1956.00
11:10:42:460 -> 2070.00
11:10:42:470 -> 1967.00
11:10:42:480 -> 2060.00
11:10:42:491 -> 1928.00
11:10:42:501 -> 2123.00
11:10:42:511 -> 1904.00
11:10:42:522 -> 2166.00
11:10:42:532 -> 1917.00
11:10:42:542 -> 2164.00
11:10:42:553 -> 1870.00
11:10:42:563 -> 2209.00
11:10:42:573 -> 1884.00
11:10:42:583 -> 2193.00
11:10:42:594 -> 1879.00
11:10:42:604 -> 2145.00
11:10:42:614 -> 1877.00
11:10:42:625 -> 2087.00
11:10:42:636 -> 1867.00
11:10:42:662 -> 2132.00
11:10:42:664 -> 1894.00
11:10:42:666 -> 2131.00
11:10:42:676 -> 1961.00
11:10:42:687 -> 2107.00
11:10:42:697 -> 2010.00
11:10:42:707 -> 2050.00
11:10:42:718 -> 1954.00
11:10:42:756 -> 1973.00
11:10:42:757 -> 2043.00
11:10:42:757 -> 2009.00
11:10:42:759 -> 2061.00
11:10:42:769 -> 1974.00
11:10:42:780 -> 2108.00
11:10:42:790 -> 1934.00
11:10:42:800 -> 2039.00
11:10:42:810 -> 1952.00
11:10:42:820 -> 2113.00
11:10:42:831 -> 1913.00
11:10:42:841 -> 2143.00
11:10:42:851 -> 1917.00
11:10:42:862 -> 2189.00
11:10:42:872 -> 1926.00
11:10:42:882 -> 2171.00
11:10:42:893 -> 1900.00
11:10:42:903 -> 2228.00
11:10:42:913 -> 1868.00
11:10:42:924 -> 2156.00
11:10:42:934 -> 1932.00
11:10:42:944 -> 2030.00
11:10:42:954 -> 1882.00
11:10:42:965 -> 2152.00
11:10:42:975 -> 1923.00
11:10:42:985 -> 2125.00
11:10:42:995 -> 1931.00
11:10:43:006 -> 2083.00
11:10:43:016 -> 1964.00
11:10:43:026 -> 2113.00
11:10:43:037 -> 2001.00
11:10:43:047 -> 2081.00
11:10:43:057 -> 2038.00
11:10:43:068 -> 2014.00
11:10:43:079 -> 2115.00
11:10:43:089 -> 1995.00
11:10:43:099 -> 2041.00
11:10:43:110 -> 2019.00
11:10:43:120 -> 2120.00
11:10:43:130 -> 1937.00
11:10:43:140 -> 2141.00
11:10:43:151 -> 1764.00
11:10:43:161 -> 2034.00
11:10:43:181 -> 1863.00
11:10:43:182 -> 2113.00
11:10:43:192 -> 2047.00
11:10:43:203 -> 2190.00
11:10:43:213 -> 1859.00
11:10:43:223 -> 2081.00
11:10:43:234 -> 1905.00
11:10:43:244 -> 2193.00
11:10:43:254 -> 1765.00
11:10:43:264 -> 2065.00
11:10:43:275 -> 1949.00
11:10:43:285 -> 2064.00
11:10:43:295 -> 1849.00
11:10:43:306 -> 1957.00
11:10:43:316 -> 1842.00
11:10:43:326 -> 2112.00
11:10:43:337 -> 1960.00
11:10:43:350 -> 1999.00
11:10:43:357 -> 1996.00
11:10:43:367 -> 1991.00
11:10:43:378 -> 1853.00
11:10:43:388 -> 2048.00
11:10:43:399 -> 2144.00
11:10:43:409 -> 1955.00
11:10:43:420 -> 1999.00
11:10:43:430 -> 2002.00
11:10:43:440 -> 2117.00
11:10:43:450 -> 1902.00
11:10:43:461 -> 2041.00
11:10:43:471 -> 1950.00
11:10:43:486 -> 2111.00
11:10:43:492 -> 1797.00
11:10:43:502 -> 2167.00
11:10:43:512 -> 1869.00
11:10:43:523 -> 2228.00
11:10:43:533 -> 1898.00
11:10:43:543 -> 2157.00
11:10:43:554 -> 1824.00
11:10:43:564 -> 2172.00
11:10:43:574 -> 1916.00
11:10:43:585 -> 2172.00
11:10:43:595 -> 1969.00
11:10:43:605 -> 2149.00
11:10:43:616 -> 1940.00
11:10:43:626 -> 2127.00
11:10:43:637 -> 1912.00
11:10:43:647 -> 2101.00
11:10:43:657 -> 1944.00
11:10:43:668 -> 1966.00
11:10:43:678 -> 2064.00
11:10:43:702 -> 2039.00
11:10:43:703 -> 2011.00
11:10:43:709 -> 1957.00
11:10:43:719 -> 2081.00
11:10:43:734 -> 2023.00
11:10:43:740 -> 2395.00
11:10:43:750 -> 1955.00
11:10:43:761 -> 2143.00
11:10:43:771 -> 1963.00
11:10:43:781 -> 2037.00
11:10:43:792 -> 1917.99
11:10:43:802 -> 2225.00
11:10:43:813 -> 1915.00
11:10:43:823 -> 2196.00
11:10:43:834 -> 1891.00
11:10:43:844 -> 2158.00
11:10:43:879 -> 1906.00
11:10:43:880 -> 2299.00
11:10:43:880 -> 1893.00
11:10:43:886 -> 2109.00
11:10:43:896 -> 1925.00
11:10:43:906 -> 2090.00
11:10:43:917 -> 1942.00
11:10:43:927 -> 2062.00
11:10:43:937 -> 1976.00
11:10:43:948 -> 2007.00
11:10:43:958 -> 2006.00
11:10:43:968 -> 2013.00
11:10:43:979 -> 2069.00
11:10:43:989 -> 1976.00
11:10:43:999 -> 2025.00
11:10:44:010 -> 2010.00
11:10:44:020 -> 2079.00
11:10:44:030 -> 1956.00
11:10:44:041 -> 2115.00
11:10:44:051 -> 1954.00
11:10:44:061 -> 2127.00
11:10:44:072 -> 1880.00
11:10:44:082 -> 2203.00
11:10:44:092 -> 1913.00
11:10:44:102 -> 2185.00
11:10:44:113 -> 1880.00
11:10:44:123 -> 2196.00
11:10:44:133 -> 1841.00
11:10:44:144 -> 2196.00
11:10:44:154 -> 1873.00
11:10:44:165 -> 2131.00
11:10:44:175 -> 1910.00
11:10:44:185 -> 2137.00
11:10:44:195 -> 1903.00
11:10:44:224 -> 2162.00
11:10:44:225 -> 1946.00
11:10:44:226 -> 2088.00
11:10:44:237 -> 1919.00
11:10:44:247 -> 2040.00
11:10:44:258 -> 1974.00
11:10:44:268 -> 2006.00
11:10:44:278 -> 2037.00
11:10:44:288 -> 1997.00
11:10:44:299 -> 2066.00
11:10:44:309 -> 1986.00
11:10:44:320 -> 2088.00
11:10:44:330 -> 1957.00
11:10:44:340 -> 2124.00
11:10:44:351 -> 1892.00
11:10:44:361 -> 2127.00
11:10:44:371 -> 1865.00
11:10:44:381 -> 2183.00
11:10:44:392 -> 1881.00
11:10:44:402 -> 2192.00
11:10:44:413 -> 1867.00
11:10:44:423 -> 2206.00
11:10:44:433 -> 1872.00
11:10:44:444 -> 2191.00
11:10:44:454 -> 1851.00
11:10:44:464 -> 2211.00
11:10:44:474 -> 1879.00
11:10:44:485 -> 2174.00
11:10:44:495 -> 1910.00
11:10:44:506 -> 2132.00
11:10:44:521 -> 1869.00
11:10:44:526 -> 2133.00
11:10:44:537 -> 1909.00
11:10:44:547 -> 2110.00
11:10:44:557 -> 1945.00
11:10:44:567 -> 2042.00
11:10:44:578 -> 1997.00
11:10:44:588 -> 2010.00
11:10:44:599 -> 2071.00
11:10:44:609 -> 2011.00
11:10:44:619 -> 2009.00
11:10:44:629 -> 1972.00
11:10:44:640 -> 2079.00
11:10:44:650 -> 1949.00
11:10:44:661 -> 2108.00
11:10:44:671 -> 1912.00
11:10:44:681 -> 2107.00
11:10:44:710 -> 1916.00
11:10:44:710 -> 2188.00
11:10:44:712 -> 1933.00
11:10:44:722 -> 2202.00
11:10:44:747 -> 1871.00
11:10:44:748 -> 2180.00
11:10:44:753 -> 1863.00
11:10:44:764 -> 2208.00
11:10:44:774 -> 1821.00
11:10:44:784 -> 2161.00
11:10:44:795 -> 1886.00
11:10:44:805 -> 2124.00
11:10:44:818 -> 1913.00
11:10:44:826 -> 2118.00
11:10:44:836 -> 1908.00
11:10:44:846 -> 2105.00
11:10:44:857 -> 1945.00
11:10:44:867 -> 2103.00
11:10:44:877 -> 1963.00
11:10:44:888 -> 2045.00
11:10:44:898 -> 2004.00
11:10:44:908 -> 2004.00
11:10:44:919 -> 2018.00
11:10:44:929 -> 1991.00
11:10:44:939 -> 2071.00
11:10:44:949 -> 1975.00
11:10:44:964 -> 2125.00
11:10:44:970 -> 1918.00
11:10:44:981 -> 2129.00
11:10:44:991 -> 1918.00
11:10:45:001 -> 2132.00
11:10:45:011 -> 1895.00
11:10:45:022 -> 2197.00
11:10:45:032 -> 1938.00
11:10:45:043 -> 2217.00
11:10:45:053 -> 1916.00
11:10:45:063 -> 2219.00
11:10:45:073 -> 1847.00
11:10:45:083 -> 2143.00
11:10:45:094 -> 1856.00
11:10:45:104 -> 2192.00
11:10:45:114 -> 1856.00
11:10:45:125 -> 2233.00
11:10:45:135 -> 1887.00
11:10:45:145 -> 2159.00
11:10:45:157 -> 1862.00
11:10:45:166 -> 2106.00
11:10:45:177 -> 1974.00
11:10:45:187 -> 2132.00
11:10:45:197 -> 1960.00
11:10:45:207 -> 2063.00
11:10:45:218 -> 1999.00
11:10:45:228 -> 2033.00
11:10:45:239 -> 2100.00
11:10:45:267 -> 2022.00
11:10:45:268 -> 2058.00
11:10:45:269 -> 1978.00
11:10:45:279 -> 2309.00
11:10:45:290 -> 1933.00
11:10:45:300 -> 2090.00
11:10:45:310 -> 1953.00
11:10:45:321 -> 2123.00
11:10:45:331 -> 1961.00
11:10:45:341 -> 2201.00
11:10:45:352 -> 1926.00
11:10:45:362 -> 2140.00
11:10:45:372 -> 1871.00
11:10:45:383 -> 2239.00
11:10:45:393 -> 1910.00
11:10:45:403 -> 2177.00
11:10:45:414 -> 1868.00
11:10:45:424 -> 2112.00
11:10:45:435 -> 1881.00
11:10:45:449 -> 2145.00
11:10:45:455 -> 1879.00
11:10:45:465 -> 2137.00
11:10:45:476 -> 1928.00
11:10:45:486 -> 2142.00
11:10:45:497 -> 1827.00
11:10:45:507 -> 2166.00
11:10:45:517 -> 1935.00
11:10:45:529 -> 2071.00
11:10:45:538 -> 2019.00
11:10:45:548 -> 2031.00
11:10:45:558 -> 2038.00
11:10:45:569 -> 2039.00
11:10:45:579 -> 2136.00
11:10:45:590 -> 1828.00
11:10:45:600 -> 2098.00
11:10:45:610 -> 1896.00
11:10:45:621 -> 2024.00
11:10:45:631 -> 1904.00
11:10:45:641 -> 2021.00
11:10:45:681 -> 1868.00
11:10:45:681 -> 2138.00
11:10:45:681 -> 2017.00
11:10:45:682 -> 2288.00
11:10:45:694 -> 1852.00
11:10:45:704 -> 2122.00
11:10:45:714 -> 1924.00
11:10:45:725 -> 2146.00
11:10:45:735 -> 1829.00
11:10:45:745 -> 2152.00
11:10:45:755 -> 1940.00
11:10:45:783 -> 2066.00
11:10:45:787 -> 1848.00
11:10:45:787 -> 2103.00
11:10:45:797 -> 1883.00
11:10:45:807 -> 2216.00
11:10:45:817 -> 1921.00
11:10:45:828 -> 2068.00
11:10:45:839 -> 1981.00
11:10:45:848 -> 1988.00
11:10:45:858 -> 2000.00
11:10:45:869 -> 1966.00
11:10:45:879 -> 2082.00
11:10:45:891 -> 1822.00
11:10:45:900 -> 2161.00
11:10:45:910 -> 1942.00
11:10:45:920 -> 2125.00
11:10:45:931 -> 1931.00
11:10:45:941 -> 2082.00
11:10:45:952 -> 1955.00
11:10:45:962 -> 2145.00
11:10:45:972 -> 1943.00
11:10:45:986 -> 2220.00
11:10:45:993 -> 1906.00
11:10:46:003 -> 2252.00
11:10:46:014 -> 1832.00
11:10:46:024 -> 2225.00
11:10:46:034 -> 1857.00
11:10:46:045 -> 2125.00
11:10:46:055 -> 1873.00
11:10:46:065 -> 2076.00
11:10:46:076 -> 1906.00
11:10:46:086 -> 2152.00
11:10:46:096 -> 1900.00
11:10:46:106 -> 2071.00
11:10:46:117 -> 1928.00
11:10:46:127 -> 2022.00
11:10:46:137 -> 1916.00
11:10:46:148 -> 2038.00
11:10:46:158 -> 1938.00
11:10:46:168 -> 2084.00
11:10:46:178 -> 2029.00
11:10:46:189 -> 1994.00
11:10:46:199 -> 2092.00
11:10:46:209 -> 1989.00
11:10:46:220 -> 2083.00
11:10:46:230 -> 2000.00
11:10:46:240 -> 2101.00
11:10:46:251 -> 1958.00
11:10:46:261 -> 2152.00
11:10:46:271 -> 1962.00
11:10:46:282 -> 2148.00
11:10:46:305 -> 1896.00
11:10:46:307 -> 2203.00
11:10:46:313 -> 1826.00
11:10:46:323 -> 2217.00
11:10:46:333 -> 1819.00
11:10:46:344 -> 2209.00
11:10:46:354 -> 1823.00
11:10:46:369 -> 2114.00
11:10:46:375 -> 1856.00
11:10:46:385 -> 2166.00
11:10:46:395 -> 1925.00
11:10:46:406 -> 2143.00
11:10:46:416 -> 1936.00
11:10:46:426 -> 2136.00
11:10:46:437 -> 1924.00
11:10:46:447 -> 2058.00
11:10:46:457 -> 1969.00
11:10:46:467 -> 2063.00
11:10:46:478 -> 2009.00
11:10:46:488 -> 2029.00
11:10:46:498 -> 2042.00
11:10:46:509 -> 2003.00
11:10:46:520 -> 2056.00
11:10:46:529 -> 1976.00
11:10:46:540 -> 2061.00
11:10:46:552 -> 1953.00
11:10:46:582 -> 2130.00
11:10:46:582 -> 1926.00
11:10:46:582 -> 2105.00
11:10:46:591 -> 1933.00
11:10:46:603 -> 2079.00
11:10:46:612 -> 1925.00
11:10:46:622 -> 2211.00
11:10:46:632 -> 1880.00
11:10:46:643 -> 2222.00
11:10:46:653 -> 1820.00
11:10:46:663 -> 2187.00
11:10:46:674 -> 1831.00
11:10:46:687 -> 2161.00
11:10:46:694 -> 1871.00
11:10:46:705 -> 2145.00
11:10:46:715 -> 1897.00
11:10:46:725 -> 2129.00
11:10:46:736 -> 1863.00
11:10:46:746 -> 2127.00
11:10:46:756 -> 1911.00
11:10:46:767 -> 2134.00
11:10:46:777 -> 1961.00
11:10:46:787 -> 2060.00
11:10:46:798 -> 1969.00
11:10:46:825 -> 2025.00
11:10:46:827 -> 2011.00
11:10:46:828 -> 2012.00
11:10:46:839 -> 2044.00
11:10:46:849 -> 1991.00
11:10:46:859 -> 2050.00
11:10:46:870 -> 1962.00
11:10:46:880 -> 2148.00
11:10:46:890 -> 1955.00
11:10:46:901 -> 2151.00
11:10:46:911 -> 1902.00
11:10:46:921 -> 2156.00
11:10:46:953 -> 1842.00
11:10:46:932 -> 1878.00
11:10:46:942 -> 2204.00
11:10:46:963 -> 2226.00
11:10:46:974 -> 1811.00
11:10:46:984 -> 2233.00
11:10:46:994 -> 1857.00
11:10:47:004 -> 2200.00
11:10:47:014 -> 1850.00
11:10:47:025 -> 2136.00
11:10:47:035 -> 1840.00
11:10:47:045 -> 2156.00
11:10:47:056 -> 1902.00
11:10:47:068 -> 2098.00
11:10:47:076 -> 1929.00
11:10:47:087 -> 2142.00
11:10:47:097 -> 1915.00
11:10:47:108 -> 2070.00
11:10:47:118 -> 1984.00
11:10:47:128 -> 2021.00
11:10:47:138 -> 2063.00
11:10:47:149 -> 2020.00
11:10:47:159 -> 2051.00
11:10:47:170 -> 1954.00
11:10:47:180 -> 2084.00
11:10:47:190 -> 1950.00
11:10:47:200 -> 2116.00
11:10:47:210 -> 1942.00
11:10:47:221 -> 2126.00
11:10:47:234 -> 1910.00
11:10:47:241 -> 2158.00
11:10:47:252 -> 1912.00
11:10:47:262 -> 2198.00
11:10:47:272 -> 1867.00
11:10:47:283 -> 2235.00
11:10:47:293 -> 1815.00
11:10:47:304 -> 2183.00
11:10:47:314 -> 1870.00
11:10:47:325 -> 2178.00
11:10:47:343 -> 1869.00
11:10:47:345 -> 2164.00
11:10:47:355 -> 1874.00
11:10:47:365 -> 2135.00
11:10:47:376 -> 1924.00
11:10:47:386 -> 2121.00
11:10:47:398 -> 1922.00
11:10:47:407 -> 2113.00
11:10:47:417 -> 1909.00
11:10:47:427 -> 2050.00
11:10:47:438 -> 1980.00
11:10:47:471 -> 2043.00
11:10:47:471 -> 2024.00
11:10:47:471 -> 2019.00
11:10:47:479 -> 2113.00
11:10:47:489 -> 1951.00
11:10:47:499 -> 2064.00
11:10:47:510 -> 1965.00
11:10:47:520 -> 2100.00
11:10:47:530 -> 1931.00
11:10:47:541 -> 2114.00
11:10:47:551 -> 1986.00
11:10:47:561 -> 2171.00
11:10:47:572 -> 1898.00
11:10:47:583 -> 2175.00
11:10:47:593 -> 1846.00
11:10:47:603 -> 2216.00
11:10:47:613 -> 1848.00
11:10:47:623 -> 2208.00
11:10:47:634 -> 1880.00
11:10:47:644 -> 2181.00
11:10:47:654 -> 1912.00
11:10:47:665 -> 2170.00
11:10:47:675 -> 1902.00
11:10:47:685 -> 2157.00
11:10:47:696 -> 1883.00
11:10:47:706 -> 2107.00
11:10:47:717 -> 1927.00
11:10:47:727 -> 2123.00
11:10:47:740 -> 1957.00
11:10:47:749 -> 1997.00
11:10:47:760 -> 2077.00
11:10:47:770 -> 1923.00
11:10:47:780 -> 2086.00
11:10:47:791 -> 1925.00
11:10:47:801 -> 2103.00
11:10:47:811 -> 1920.00
11:10:47:821 -> 2151.00
11:10:47:832 -> 1914.00
11:10:47:858 -> 2194.00
11:10:47:859 -> 1866.00
11:10:47:862 -> 2234.00
11:10:47:873 -> 1823.00
11:10:47:887 -> 2220.00
11:10:47:894 -> 1865.00
11:10:47:904 -> 2139.00
11:10:47:914 -> 1865.00
11:10:47:925 -> 2149.00
11:10:47:935 -> 1873.00
11:10:47:945 -> 2140.00
11:10:47:956 -> 1871.00
11:10:47:966 -> 2127.00
11:10:47:976 -> 1909.00
11:10:47:987 -> 2090.00
11:10:47:997 -> 1947.00
11:10:48:007 -> 2054.00
11:10:48:018 -> 1971.00
11:10:48:028 -> 2030.00
11:10:48:038 -> 2036.00
11:10:48:051 -> 1998.00
11:10:48:059 -> 2099.00
11:10:48:069 -> 1971.00
11:10:48:079 -> 2103.00
11:10:48:090 -> 1983.00
11:10:48:100 -> 2052.00
11:10:48:110 -> 1935.00
11:10:48:121 -> 2090.00
11:10:48:131 -> 1919.00
11:10:48:141 -> 2177.00
11:10:48:152 -> 1914.00
11:10:48:162 -> 2193.00
11:10:48:172 -> 1868.00
11:10:48:183 -> 2227.00
11:10:48:193 -> 1812.00
11:10:48:203 -> 2171.00
11:10:48:214 -> 1856.00
11:10:48:224 -> 2183.00
11:10:48:234 -> 1859.00
11:10:48:245 -> 2117.00
11:10:48:277 -> 1908.00
11:10:48:277 -> 2151.00
11:10:48:277 -> 1975.00
11:10:48:286 -> 2144.00
11:10:48:296 -> 1927.00
11:10:48:307 -> 2108.00
11:10:48:317 -> 1953.00
11:10:48:327 -> 2030.00
11:10:48:337 -> 1965.00
11:10:48:348 -> 2000.00
11:10:48:378 -> 2053.00
11:10:48:379 -> 2009.00
11:10:48:379 -> 2026.00
11:10:48:389 -> 1976.00
11:10:48:400 -> 2049.00
11:10:48:410 -> 1954.00
11:10:48:420 -> 2108.00
11:10:48:430 -> 1962.00
11:10:48:440 -> 2177.00
11:10:48:451 -> 1887.00
11:10:48:461 -> 2132.00
11:10:48:471 -> 1865.00
11:10:48:482 -> 2224.00
11:10:48:492 -> 1936.00
11:10:48:502 -> 2169.00
11:10:48:513 -> 1919.00
11:10:48:523 -> 2121.00
11:10:48:534 -> 1883.00
11:10:48:544 -> 2135.00
11:10:48:554 -> 1910.00
11:10:48:564 -> 2087.00
11:10:48:575 -> 1874.00
11:10:48:585 -> 2183.00
11:10:48:596 -> 1771.00
11:10:48:610 -> 2146.00
11:10:48:616 -> 1895.00
11:10:48:627 -> 2075.00
11:10:48:637 -> 1927.00
11:10:48:648 -> 2037.00
11:10:48:658 -> 2027.00
11:10:48:668 -> 2047.00
11:10:48:678 -> 2030.00
11:10:48:688 -> 1993.00
11:10:48:699 -> 2170.00
11:10:48:709 -> 1965.00
11:10:48:720 -> 2028.00
11:10:48:730 -> 1913.00
11:10:48:740 -> 2083.00
11:10:48:751 -> 1996.00
11:10:48:764 -> 2070.00
11:10:48:775 -> 1803.00
11:10:48:785 -> 2061.00
11:10:48:795 -> 1892.00
11:10:48:806 -> 2066.00
11:10:48:816 -> 1952.00
11:10:48:827 -> 2083.00
11:10:48:837 -> 2016.00
11:10:48:847 -> 2041.00
11:10:48:857 -> 1921.00
11:10:48:868 -> 2036.00
11:10:48:899 -> 2091.00
11:10:48:900 -> 1951.00
11:10:48:900 -> 2046.00
11:10:48:911 -> 1946.00
11:10:48:920 -> 2037.00
11:10:48:930 -> 1889.00
11:10:48:940 -> 2130.00
11:10:48:951 -> 1913.00
11:10:48:961 -> 2017.00
11:10:48:972 -> 1803.00
11:10:48:982 -> 2143.00
11:10:48:992 -> 1862.00
11:10:49:003 -> 2308.00
11:10:49:013 -> 1855.00
11:10:49:026 -> 2177.00
11:10:49:034 -> 1875.00
11:10:49:044 -> 2160.00
11:10:49:054 -> 1894.00
11:10:49:065 -> 2249.00
11:10:49:075 -> 1955.00
11:10:49:085 -> 2125.00
11:10:49:096 -> 1903.00
11:10:49:106 -> 2165.00
11:10:49:116 -> 1970.00
11:10:49:127 -> 2091.00
11:10:49:159 -> 1924.00
11:10:49:159 -> 2023.00
11:10:49:159 -> 2022.00
11:10:49:168 -> 2068.00
11:10:49:178 -> 2068.00
11:10:49:188 -> 1861.00
11:10:49:199 -> 2071.00
11:10:49:209 -> 1970.00
11:10:49:220 -> 2092.00
11:10:49:230 -> 1950.00
11:10:49:240 -> 2121.00
11:10:49:251 -> 1962.00
11:10:49:261 -> 2238.00
11:10:49:271 -> 1996.00
11:10:49:282 -> 2177.00
11:10:49:292 -> 1884.00
11:10:49:302 -> 2175.00
11:10:49:313 -> 1867.00
11:10:49:324 -> 2145.00
11:10:49:334 -> 1857.00
11:10:49:344 -> 2185.00
11:10:49:354 -> 1911.00
11:10:49:366 -> 2137.00
11:10:49:375 -> 1929.00
11:10:49:385 -> 2111.00
11:10:49:396 -> 1900.00
11:10:49:424 -> 2125.00
11:10:49:425 -> 1897.00
11:10:49:427 -> 2132.00
11:10:49:437 -> 1943.00
11:10:49:447 -> 2073.00
11:10:49:458 -> 2023.00
11:10:49:468 -> 2012.00
11:10:49:478 -> 2077.00
11:10:49:489 -> 2002.00
11:10:49:499 -> 2039.00
11:10:49:509 -> 1969.00
11:10:49:520 -> 2105.00
11:10:49:530 -> 1956.00
11:10:49:540 -> 2098.00
11:10:49:551 -> 1943.00
11:10:49:561 -> 2159.00
11:10:49:571 -> 1914.00
11:10:49:582 -> 2175.00
11:10:49:592 -> 1844.00
11:10:49:603 -> 2195.00
11:10:49:613 -> 1852.00
11:10:49:623 -> 2241.00
11:10:49:634 -> 1903.00
11:10:49:644 -> 2109.00
11:10:49:655 -> 1881.00
11:10:49:665 -> 2199.00
11:10:49:675 -> 1862.00
11:10:49:686 -> 2147.00
11:10:49:696 -> 1904.00
11:10:49:706 -> 2104.00
11:10:49:717 -> 1909.00
11:10:49:727 -> 2102.00
11:10:49:738 -> 1962.00
11:10:49:747 -> 2025.00
11:10:49:758 -> 2003.00
11:10:49:768 -> 2044.00
11:10:49:778 -> 2011.00
11:10:49:789 -> 1919.00
11:10:49:800 -> 2048.00
11:10:49:810 -> 1972.00
11:10:49:820 -> 2013.00
11:10:49:830 -> 1845.00
11:10:49:843 -> 2151.00
11:10:49:851 -> 1920.00
11:10:49:861 -> 2166.00
11:10:49:871 -> 1879.00
11:10:49:882 -> 2220.00
11:10:49:892 -> 1854.00
11:10:49:902 -> 2207.00
11:10:49:913 -> 1829.00
11:10:49:966 -> 2177.00
11:10:49:967 -> 1789.00
11:10:49:967 -> 2243.00
11:10:49:967 -> 1842.00
11:10:49:967 -> 2192.00
11:10:49:975 -> 1852.00
11:10:49:985 -> 2199.00
11:10:49:995 -> 1879.00
11:10:50:005 -> 2169.00
11:10:50:016 -> 1895.00
11:10:50:026 -> 2121.00
11:10:50:036 -> 1888.00
11:10:50:047 -> 2114.00
11:10:50:057 -> 1934.00
11:10:50:067 -> 2017.00
11:10:50:078 -> 1995.00
11:10:50:088 -> 2042.00
11:10:50:098 -> 2060.00
11:10:50:109 -> 2005.00
11:10:50:119 -> 2067.00
11:10:50:129 -> 1945.00
11:10:50:140 -> 2093.00
11:10:50:153 -> 1938.00
11:10:50:160 -> 2139.00
11:10:50:171 -> 1942.00
11:10:50:181 -> 2145.00
11:10:50:191 -> 1881.00
11:10:50:202 -> 2225.00
11:10:50:212 -> 1895.00
11:10:50:222 -> 2230.00
11:10:50:233 -> 1818.00
11:10:50:244 -> 2215.00
11:10:50:253 -> 1812.00
11:10:50:264 -> 2214.00
11:10:50:274 -> 1809.00
11:10:50:284 -> 2168.00
11:10:50:295 -> 1904.00
11:10:50:305 -> 2186.00
11:10:50:315 -> 1860.00
11:10:50:325 -> 2138.00
11:10:50:336 -> 1869.00
11:10:50:346 -> 2095.00
11:10:50:356 -> 1881.00
11:10:50:366 -> 2103.00
11:10:50:378 -> 1938.00
11:10:50:388 -> 2047.00
11:10:50:398 -> 2005.00
11:10:50:408 -> 2016.00
11:10:50:419 -> 2043.00
11:10:50:429 -> 1933.00
11:10:50:439 -> 2095.00
11:10:50:450 -> 1932.00
11:10:50:460 -> 2122.00
11:10:50:486 -> 1936.00
11:10:50:487 -> 2152.00
11:10:50:491 -> 1910.00
11:10:50:501 -> 2206.00
11:10:50:512 -> 1870.00
11:10:50:522 -> 2212.00
11:10:50:534 -> 1826.00
11:10:50:543 -> 2236.00
11:10:50:553 -> 1813.00
11:10:50:563 -> 2216.00
11:10:50:574 -> 1857.00
11:10:50:584 -> 2224.00
11:10:50:594 -> 1866.00
11:10:50:605 -> 2130.00
11:10:50:615 -> 1880.00
11:10:50:625 -> 2147.00
11:10:50:636 -> 1865.00
11:10:50:648 -> 2177.00
11:10:50:656 -> 1862.00
11:10:50:667 -> 2108.00
11:10:50:677 -> 1921.00
11:10:50:687 -> 2067.00
11:10:50:698 -> 1956.00
11:10:50:708 -> 2108.00
11:10:50:744 -> 2077.00
11:10:50:745 -> 1997.00
11:10:50:745 -> 2107.00
11:10:50:749 -> 1885.00
11:10:50:759 -> 2083.00
11:10:50:770 -> 1896.00
11:10:50:780 -> 2298.00
11:10:50:793 -> 1870.00
11:10:50:800 -> 2232.00
11:10:50:811 -> 1917.00
11:10:50:821 -> 2188.00
11:10:50:832 -> 1938.00
11:10:50:842 -> 2253.00
11:10:50:852 -> 1875.00
11:10:50:862 -> 2217.00
11:10:50:873 -> 1860.00
11:10:50:883 -> 2246.00
11:10:50:894 -> 1834.00
11:10:50:904 -> 2144.00
11:10:50:919 -> 2070.00
11:10:50:924 -> 2172.00
11:10:50:935 -> 1881.00
11:10:50:945 -> 2157.00
11:10:50:956 -> 1871.00
11:10:50:966 -> 2135.00
11:10:50:976 -> 1853.00
11:10:51:003 -> 2107.00
11:10:51:004 -> 1950.00
11:10:51:007 -> 2153.00
11:10:51:020 -> 1977.00
11:10:51:028 -> 1995.00
11:10:51:038 -> 1966.00
11:10:51:048 -> 1975.00
11:10:51:059 -> 2073.00
11:10:51:069 -> 1946.00
11:10:51:080 -> 2090.00
11:10:51:090 -> 1935.00
11:10:51:100 -> 2105.00
11:10:51:111 -> 1965.00
11:10:51:121 -> 2117.00
11:10:51:131 -> 1919.00
11:10:51:141 -> 2170.00
11:10:51:152 -> 1944.00
11:10:51:162 -> 2226.00
11:10:51:173 -> 1839.00
11:10:51:183 -> 2219.00
11:10:51:193 -> 1847.00
11:10:51:208 -> 2143.00
11:10:51:214 -> 1794.00
11:10:51:224 -> 2089.00
11:10:51:234 -> 1865.00
11:10:51:245 -> 2245.00
11:10:51:255 -> 1851.00
11:10:51:265 -> 2163.00
11:10:51:276 -> 1852.00
11:10:51:286 -> 2129.00
11:10:51:297 -> 1934.00
11:10:51:307 -> 2073.00
11:10:51:317 -> 1933.00
11:10:51:327 -> 2008.00
11:10:51:338 -> 2007.00
11:10:51:352 -> 1939.00
11:10:51:358 -> 2080.00
11:10:51:369 -> 1953.00
11:10:51:379 -> 2043.00
11:10:51:389 -> 1983.00
11:10:51:399 -> 2100.00
11:10:51:410 -> 1941.00
11:10:51:420 -> 2089.00
11:10:51:430 -> 1926.00
11:10:51:441 -> 2106.00
11:10:51:451 -> 1936.00
11:10:51:461 -> 2150.00
11:10:51:472 -> 1875.00
11:10:51:482 -> 2226.00
11:10:51:492 -> 1834.00
11:10:51:519 -> 2251.00
11:10:51:520 -> 1883.00
11:10:51:523 -> 2235.00
11:10:51:538 -> 1876.00
11:10:51:544 -> 2172.00
11:10:51:555 -> 1882.00
11:10:51:565 -> 2187.00
11:10:51:575 -> 1871.00
11:10:51:585 -> 2161.00
11:10:51:596 -> 1905.00
11:10:51:637 -> 2121.00
11:10:51:639 -> 1868.00
11:10:51:639 -> 2104.00
11:10:51:639 -> 2030.00
11:10:51:648 -> 1979.00
11:10:51:659 -> 2067.00
11:10:51:669 -> 1957.00
11:10:51:679 -> 2082.00
11:10:51:689 -> 1882.00
11:10:51:700 -> 2164.00
11:10:51:720 -> 2043.00
11:10:51:710 -> 1987.00
11:10:51:731 -> 1919.00
11:10:51:742 -> 2189.00
11:10:51:752 -> 1887.00
11:10:51:762 -> 2208.00
11:10:51:772 -> 1854.00
11:10:51:783 -> 2232.00
11:10:51:793 -> 1804.00
11:10:51:803 -> 2235.00
11:10:51:813 -> 1802.00
11:10:51:824 -> 2236.00
11:10:51:834 -> 1848.00
11:10:51:844 -> 2189.00
11:10:51:855 -> 1856.00
11:10:51:866 -> 2204.00
11:10:51:876 -> 1825.00
11:10:51:886 -> 2137.00
11:10:51:896 -> 1893.00
11:10:51:907 -> 2084.00
11:10:51:917 -> 1951.00
11:10:51:930 -> 2069.00
11:10:51:937 -> 1999.00
11:10:51:948 -> 2032.00
11:10:51:958 -> 2032.00
11:10:51:968 -> 2002.00
11:10:51:979 -> 2078.00
11:10:51:989 -> 1878.00
11:10:51:999 -> 2084.00
11:10:52:010 -> 1924.00
11:10:52:040 -> 2145.00
11:10:52:040 -> 1909.00
11:10:52:041 -> 2107.00
11:10:52:051 -> 1910.00
11:10:52:061 -> 2205.00
11:10:52:076 -> 1910.00
11:10:52:082 -> 2197.00
11:10:52:092 -> 1824.00
11:10:52:103 -> 2213.00
11:10:52:113 -> 1813.00
11:10:52:123 -> 2241.00
11:10:52:133 -> 1803.00
11:10:52:144 -> 2232.00
11:10:52:154 -> 1846.00
11:10:52:164 -> 2193.00
11:10:52:175 -> 1833.00
11:10:52:185 -> 2174.00
11:10:52:195 -> 1862.00
11:10:52:205 -> 2158.00
11:10:52:216 -> 1864.00
11:10:52:226 -> 2133.00
11:10:52:236 -> 1924.00
11:10:52:247 -> 2118.00
11:10:52:257 -> 1941.00
11:10:52:267 -> 2056.00
11:10:52:278 -> 2004.00
11:10:52:288 -> 2037.00
11:10:52:298 -> 2046.00
11:10:52:308 -> 1988.00
11:10:52:319 -> 2070.00
11:10:52:329 -> 1959.00
11:10:52:339 -> 2048.00
11:10:52:350 -> 1924.00
11:10:52:360 -> 2137.00
11:10:52:370 -> 1935.00
11:10:52:400 -> 2150.00
11:10:52:400 -> 1911.00
11:10:52:401 -> 2180.00
11:10:52:419 -> 1893.00
11:10:52:422 -> 2219.00
11:10:52:432 -> 1804.00
11:10:52:443 -> 2238.00
11:10:52:453 -> 1813.00
11:10:52:463 -> 2205.00
11:10:52:474 -> 1852.00
11:10:52:484 -> 2167.00
11:10:52:494 -> 1839.00
11:10:52:505 -> 2179.00
11:10:52:515 -> 1875.00
11:10:52:525 -> 2145.00
11:10:52:536 -> 1902.00
11:10:52:558 -> 2125.00
11:10:52:558 -> 1906.00
11:10:52:572 -> 2146.00
11:10:52:577 -> 1970.00
11:10:52:587 -> 2065.00
11:10:52:598 -> 2049.00
11:10:52:608 -> 2001.00
11:10:52:618 -> 2049.00
11:10:52:629 -> 1993.00
11:10:52:639 -> 2046.00
11:10:52:649 -> 1929.00
11:10:52:660 -> 2097.00
11:10:52:670 -> 1919.00
