2420
2446
2472
2436
2440
2398
2456
2469
2483
2493
2488
2475
2493
2439
2483
2457
2446
2396
2392
2416
2433
2452
2443
2476
2452
2413
2447
2457
2489
2471
2472
2445
2490
2425
2456
2395
2441
2456
2453
2465
2478
2420
2460
2491
2497
2475
2477
2475
2456
2451
2440
2439
2443
2444
2447
2448
2463
2430
2463
2485
2519
2465
2473
2464
2477
2464
2474
2458
2407
2388
2451
2450
2466
2450
2438
2480
2465
2491
2493
2471
2464
2453
2476
2453
2417
2392
2430
2427
2432
2427
2408
2431
2445
2459
2477
2463
2441
2445
2440
2446
2442
2467
2493
2456
2442
2446
2408
2434
2519
2466
2434
2399
2418
2459
2482
2467
2501
2457
2410
2392
2429
2440
2438
2445
2509
2425
2477
2451
2520
2471
2490
2481
2478
2481
2444
2409
2438
2427
2434
2444
2438
2425
2431
2447
2424
2451
2481
2498
2497
2492
2451
2445
2454
2416
2453
2460
2457
2462
2461
2488
2474
2465
2457
2484
2464
2449
2478
2437
2421
2392
2465
2445
2455
2431
2457
2454
2456
2481
2488
2473
2466
2465
2479
2446
2449
2434
2395
2446
2434
2444
2450
2463
2443
2511
2489
2493
2480
2497
2467
2467
2430
2425
2431
2425
2422
2433
2447
2449
2432
2427
2447
2470
2491
2459
2465
2467
2462
2453
2448
2421
2436
2431
2438
2449
2456
2444
2474
2470
2482
2428
2469
2477
2479
2476
2479
2441
2385
2401
2422
2431
2439
2443
2443
2400
2470
2486
2467
2473
2470
2493
2470
2467
2433
2413
2438
2431
2450
2425
2451
2424
2453
2455
2499
2478
2479
2471
2450
2470
2440
2439
2418
2409
2430
2447
2451
2476
2443
2461
2434
2454
2475
2475
2464
2408
2435
2405
2372
2376
2398
2415
2449
2446
2424
2461
2491
2523
2518
2484
2488
2470
2464
2430
2443
2390
2380
2412
2378
2462
2461
2448
2462
2437
2455
2491
2481
2481
2472
2462
2442
2443
2440
2435
2429
2432
2432
2437
2434
2442
2430
2435
2452
2471
2460
2451
2447
2426
2394
2358
2348
2424
2429
2425
2439
2420
2416
2479
2463
2484
2429
2472
2456
2436
2426
2396
2384
2462
2446
2465
2469
2493
2449
2458
2470
2493
2479
2454
2460
2459
2448
2444
2417
2397
2428
2434
2445
2441
2455
2438
2439
2496
2506
2438
2468
2469
2454
2460
2425
2422
2431
2422
2426
2429
2429
2445
2459
2446
2498
2459
2469
2448
2437
2447
2449
2433
2395
2370
2402
2391
2424
2423
2443
2394
2472
2433
2401
2428
2414
2403
2436
2437
2408
2375
2387
2419
2437
2390
2428
2448
2423
2454
2436
2465
2474
2488
2461
2470
2451
2440
2429
2415
2430
2447
2450
2434
2440
2430
2418
2450
2477
2473
2461
2460
2433
2405
2415
2417
2431
2435
2435
2444
2403
2448
2420
2467
2486
2475
2473
2451
2430
2449
2454
2417
2422
2411
2402
2431
2431
2450
2430
2420
2427
2442
2440
2433
2448
2452
2410
2417
2378
2381
2396
2423
2446
2450
2431
2461
2435
2426
2464
2448
2451
2440
2417
2441
2422
2417
2449
2435
2441
2416
2448
2401
2395
2423
2424
2410
2410
2449
2463
2435
2438
2449
2418
2433
2422
2429
2433
2439
2413
2429
2433
2431
2438
2439
2440
2429
2413
2411
2369
2421
2440
2408
2435
2444
2411
2450
2449
2468
2488
2472
2463
2444
2435
2416
2417
2418
2386
2433
2421
2430
2443
2450
2446
2451
2466
2426
2444
2453
2443
2447
2424
2420
2402
2439
2436
2411
2414
2431
2408
2392
2424
2449
2469
2438
2463
2461
2433
2428
2437
2402
2435
2408
2423
2374
2387
2405
2414
2446
2490
2469
2461
2441
2431
2423
2427
2424
2419
2423
2379
2405
2415
2428
2418
2444
2422
2415
2431
2473
2449
2458
2459
2448
2407
2389
2370
2422
2435
2438
2430
2445
2431
2456
2420
2457
2431
2436
2436
2429
2443
2407
2378
2418
2395
2415
2401
2394
2433
2433
2465
2483
2486
2466
2453
2465
2436
2412
2393
2387
2412
2405
2380
2409
2393
2414
2432
2529
2457
2439
2455
2466
2433
2436
2427
2398
2364
2415
2424
2427
2423
2429
2444
2445
2412
2457
2437
2462
2444
2441
2425
2427
2366
2366
2415
2431
2427
2418
2447
2411
2439
2460
2446
2446
2434
2442
2417
2439
2420
2432
2416
2435
2417
2430
2427
2454
2442
2463
2441
2460
2468
2439
2427
2443
2418
2383
2365
2392
2418
2412
2414
2353
2399
2386
2417
2467
2480
2455
2433
2442
2432
2439
2393
2363
2403
2422
2364
2439
2441
2471
2460
2449
2408
2452
2464
2436
2445
2415
2413
2408
2420
2400
2418
2436
2418
2413
2405
2436
2475
2466
2451
2446
2436
2432
2429
2374
2420
2426
2423
2418
2428
2435
2440
2436
2431
2421
2451
2438
2439
2454
2426
2402
2428
2411
2411
2408
2415
2421
2438
2433
2440
2445
2448
2452
2447
2447
2443
2432
2400
2400
2441
2417
2390
2409
2431
2426
2449
2444
2443
2456
2428
2434
2405
2390
2432
2414
2376
2362
2369
2421
2395
2396
2415
2403
2404
2475
2480
2459
2457
2445
2464
2361
2431
2415
2443
2422
2423
2434
2413
2413
2426
2399
2407
2418
2437
2435
2443
2432
2429
2409
2411
2372
2384
2417
2416
2417
2436
2392
2432
2418
2462
2397
2449
2439
2444
2404
2409
2365
2348
2374
2409
2422
2410
2436
2423
2441
2396
2411
2452
2446
2435
2414
2415
2387
2357
2364
2409
2433
2426
2400
2394
2415
2484
2460
2430
2447
2438
2421
2423
2423
2395
2378
2401
2370
2398
2429
2415
2427
2433
2405
2430
2420
2433
2409
2417
2393
2386
2375
2413
2418
2429
2452
2405
2400
2439
2432
2419
2425
2455
2448
2433
2432
2419
2415
2350
2337
2344
2400
2415
2427
2413
2396
2423
2420
2431
2437
2434
2429
2401
2384
2406
2397
2414
2479
2405
2406
2424
2434
2427
2430
2434
2454
2434
2439
2430
2404
2423
2396
2385
2328
2394
2391
2413
2415
2442
2415
2409
2455
2447
2426
2418
2400
2389
2380
2383
2400
2389
2395
2415
2426
2382
2349
2420
2425
2426
2456
2428
2420
2430
2419
2392
2381
2346
2393
2346
2404
2430
2401
2427
2460
2490
2482
2454
2445
2429
2441
2399
2390
2347
2329
2399
2402
2397
2410
2398
2375
2401
2424
2425
2450
2429
2438
2407
2403
2396
2401
2409
2415
2414
2416
2403
2407
2385
2407
2417
2372
2392
2418
2429
2436
2420
2388
2375
2374
2408
2408
2402
2421
2431
2446
2445
2422
2440
2469
2459
2449
2440
2414
2387
2378
2402
2419
2407
2432
2427
2421
2436
2468
2466
2434
2432
2431
2388
2397
2396
2379
2378
2372
2402
2394
2425
2416
2400
2413
2412
2403
2425
2430
2429
2430
2392
2371
2354
2376
2382
2404
2405
2415
2366
2378
2394
2462
2431
2434
2434
2414
2419
2387
2412
2412
2408
2344
2383
2394
2401
2352
2372
2428
2468
2459
2463
2456
2436
2425
2410
2407
2402
2377
2396
2404
2398
2436
2423
2442
2408
2431
2509
2448
2438
2441
2436
2396
2383
2364
2394
2385
2402
2406
2406
2386
2415
2393
2396
2410
2405
2389
2422
2410
2428
2428
2416
2403
2396
2394
2414
2393
2400
2411
2416
2447
2465
2481
2478
2455
2416
2406
2378
2398
2393
2405
2426
2437
2403
2420
2395
2464
2478
2461
2453
2438
2430
2442
2391
2396
2362
2398
2400
2407
2404
2418
2432
2386
2374
2412
2420
2434
2437
2438
2447
2427
2371
2358
2421
2442
2426
2413
2424
2409
2398
2435
2489
2452
2428
2421
2422
2387
2381
2379
2423
2410
2404
2420
2429
2398
2408
2389
2456
2427
2431
2414
2413
2399
2394
2374
2384
2375
2391
2418
2412
2434
2448
2456
2411
2447
2441
2432
2446
2426
2413
2375
2386
2366
2436
2425
2398
2433
2420
2413
2472
2472
2464
2459
2447
2434
2421
2409
2378
2351
2400
2391
2412
2404
2415
2398
2433
2437
2436
2450
2432
2436
2431
2436
2401
2365
2382
2414
2396
2395
2401
2395
2374
2406
2421
2465
2410
2447
2444
2448
2435
2419
2380
2392
2348
2398
2387
2404
2364
2425
2430
2446
2405
2457
2454
2408
2446
2417
2398
2358
2398
2385
2405
2406
2375
2440
2455
2451
2487
2451
2455
2446
2417
2440
2433
2407
2357
2359
2378
2414
2402
2426
2410
2402
2439
2464
2468
2431
2437
2435
2390
2422
2385
2376
2399
2397
2416
2384
2418
2427
2450
2439
2430
2464
2410
2448
2435
2429
2392
2391
2385
2342
2381
2412
2410
2403
2368
2406
2441
2495
2434
2457
2440
2442
2413
2447
2417
2364
2362
2380
2423
2421
2409
2418
2419
2401
2411
2432
2415
2394
2401
2423
2431
2373
2355
2392
2411
2415
2431
2420
2418
2425
2475
2469
2439
2465
2475
2423
2437
2430
2406
2421
2413
2418
2409
2449
2434
2425
2445
2417
2425
2430
2463
2438
2440
2410
2394
2397
2348
2378
2396
2416
2414
2378
2403
2424
2460
2422
2426
2440
2422
2432
2390
2407
2392
2378
2389
2399
2393
2432
2452
2416
2462
2433
2421
2442
2445
2417
2417
2414
2352
2355
2393
2383
2395
2422
2403
2426
2405
2455
2470
2486
2446
2427
2432
2420
2438
2394
2372
2390
2388
2403
2437
2443
2428
2428
2458
2453
2450
2453
2448
2438
2440
2464
2383
2399
2394
2408
2389
2414
2368
2424
2442
2424
2408
2424
2424
2443
2433
2385
2399
2377
2346
2384
2407
2400
2399
2389
2393
2394
2449
2425
2442
2417
2430
2435
2467
2422
2371
2343
2383
2409
2420
2422
2414
2419
2438
2408
2492
2426
2434
2440
2434
2441
2398
2348
2357
2399
2414
2427
2402
2432
2399
2417
2452
2478
2447
2420
2448
2401
2376
2407
2398
2378
2394
2417
2437
2406
2437
2453
2489
2399
2431
2455
2448
2432
2418
2408
2383
2351
2401
2393
2399
2409
2407
2400
2424
2435
2470
2432
2423
2435
2415
2430
2431
2400
2358
2400
2430
2413
2423
2438
2396
2456
2450
2478
2437
2440
2426
2401
2401
2398
2433
2443
2453
2414
2420
2361
2428
2438
2446
2456
2461
2448
2439
2429
2423
2423
2390
2357
2403
2398
2408
2413
2415
2363
2381
2382
2415
2390
2410
2436
2465
2412
2393
2399
2455
2402
2414
2432
2417
2440
2447
2446
2445
2460
2513
2457
2450
2439
2400
2420
2392
2403
2384
2397
2407
2401
2416
2414
2435
2444
2457
2425
2439
2446
2450
2438
2417
2405
2339
2396
2414
2417
2409
2392
2417
2423
2456
2490
2443
2440
2433
2436
2414
2397
2369
2382
2392
2386
2389
2418
2387
2378
2381
2454
2430
2441
2440
2363
2434
2443
2430
2409
2369
2391
2408
2417
2384
2396
2391
2417
2469
2477
2445
2444
2440
2422
2412
2390
2365
2402
2430
2425
2433
2438
2410
2435
2483
2458
2450
2441
2458
2437
2437
2419
2365
2338
2375
2382
2412
2401
2425
2425
2435
2417
2489
2436
2448
2426
2434
2400
2398
2390
2393
2401
2432
2407
2415
2391
2425
2409
2431
2386
2423
2422
2414
2425
2422
2400
2372
2420
2432
2449
2431
2438
2416
2431
2419
2467
2454
2447
2428
2426
2396
2405
2386
2388
2376
2380
2431
2398
2432
2477
2463
2445
2429
2448
2460
2448
2394
2445
2432
2407
2363
2408
2406
2416
2420
2431
2394
2424
2445
2470
2445
2454
2447
2396
2422
2396
2349
2366
2371
2394
2366
2419
2443
2398
2423
2445
2418
2461
2463
2438
2430
2424
2411
2391
2352
2389
2404
2406
2419
2416
2437
2428
2457
2483
2449
2440
2433
2393
2389
2406
2383
2403
2363
2390
2415
2408
2406
2427
2466
2485
2508
2468
2460
2446
2436
2414
2393
2359
2392
2370
2395
2373
2387
2433
2455
2468
2463
2458
2454
2431
2427
2443
2429
2386
2352
2361
2407
2427
2409
2435
2446
2422
2401
2432
2461
2450
2457
2428
2415
2397
2395
2393
2388
2394
2411
2415
2407
2418
2443
2442
2443
2437
2452
2445
2431
2442
2410
2369
2374
2399
2411
2412
2422
2422
2388
2415
2479
2465
2467
2462
2439
2418
2410
2386
2395
2401
2425
2400
2400
2423
2408
2407
2425
2434
2453
2447
2454
2431
2404
2396
2377
2283
2484
2507
2546
2432
2466
2347
2362
2138
1807
2001
2154
2639
2999
2808
2294
2488
2381
2536
2701
2614
2568
2454
2525
2686
2553
2398
2261
2193
2226
2318
2290
2295
2435
2664
2624
2639
2523
2598
2625
2620
2428
2327
2305
2464
2547
2004
1873
2212
2523
2756
3000
2515
2439
2620
2483
2526
2558
2542
2640
2486
2290
2244
2226
2363
2313
2444
2353
2384
2527
2631
2683
2641
2455
2401
2498
2493
2364
2409
2342
2228
2194
2143
2088
2276
2276
2322
2720
2965
2944
2762
2538
2478
2368
2419
2469
2621
2235
2418
2572
2530
2501
2560
2751
2529
2348
2250
2431
2609
2670
2505
2533
2532
2442
2425
2474
2430
2443
2557
2374
2189
2267
2556
2655
2635
2379
2540
2619
2515
2460
2531
2461
2511
2380
2308
2497
2582
2456
2398
2198
2377
2484
2532
2475
2440
2452
2289
2438
2493
2695
2582
2543
2567
2466
2642
2594
2381
2141
2279
2356
2361
2497
2841
2650
2632
2484
2536
2488
2431
2447
2523
2574
2455
2432
2514
2552
2528
2333
2285
2613
2567
2476
2526
2501
2387
2366
2273
2368
2460
2698
2552
2665
2729
2515
2506
2376
2295
2322
2236
2289
2549
2901
2718
2561
2556
2482
2459
2434
2383
2481
2374
2426
2393
2298
2251
2577
2594
2669
2649
2761
2587
2483
2258
2362
2235
2181
2343
2762
2961
2682
2563
2521
2495
2311
2161
2316
2498
2637
2659
2608
2409
2185
2319
2741
2807
2729
2668
2492
2469
2622
2582
2532
2454
2548
2588
2538
2444
2404
2282
2285
2290
2540
2275
2168
2322
2790
2774
2726
2662
2581
2555
2579
2581
2535
2479
2405
2607
2651
2483
2363
2297
2346
2373
2566
2600
2567
2476
2593
2702
2642
2541
2473
2341
2287
2369
2296
2456
2570
2471
2472
2479
2546
2666
2303
2342
2408
2594
2762
2728
2673
2489
2376
2574
2573
2505
2441
2423
2458
2506
2760
2760
2719
2587
2425
2450
2556
2538
2673
2551
2430
2562
2437
2433
2329
2485
2690
2528
2528
2422
2309
2322
2390
2261
2407
2643
2567
2742
2555
2564
2669
2661
2428
2340
2417
2485
2570
2718
2869
2587
2663
2564
2493
2545
2621
2637
2544
2353
2233
2381
2460
2449
2525
2506
2510
2407
2421
2634
2699
2635
2698
2616
2374
2301
2400
2106
2096
2330
2319
2775
2789
2885
2892
2670
2640
2592
2572
2458
2398
2560
2542
2493
2536
2422
2410
2334
2462
2504
2488
2749
2645
2601
2597
2546
2693
2665
2503
2496
2474
2478
2517
2565
2659
2635
2575
2507
2516
2533
2464
2425
2434
2340
2188
2173
2278
2280
2432
2535
2932
3013
2617
2689
2687
2629
2603
2649
2558
2582
2652
2548
2527
2545
2567
2581
2643
2551
2518
2591
2697
2364
2176
2501
2446
2478
2501
2404
2377
2260
2223
2255
2422
2812
2917
2767
2602
2715
2601
2607
2591
2537
2543
2513
2447
2413
2405
2373
2367
2618
2634
2644
2572
2275
2020
1956
2263
2484
2932
2995
2908
2727
2729
2660
2660
2534
2462
2349
2438
2670
2760
2805
2567
2476
2466
2478
2547
2460
2527
2634
2654
2373
2546
2601
2580
2498
2379
2262
2332
2537
2619
2583
2642
2743
2666
2513
2391
2588
2565
2593
2511
2557
2613
2585
2587
2623
2403
2243
2384
2312
2367
2473
2316
2659
2681
2580
2686
2661
2682
2725
2736
2742
2541
2260
2198
2328
2465
2109
2334
2714
2902
2759
2734
2746
2666
2614
2531
2425
2372
2502
2505
2365
2469
2428
2260
2284
2238
2122
2500
3060
3143
2880
2751
2740
2576
2362
2485
2517
2653
2560
2516
2508
2540
2392
2392
2414
2557
2537
2457
2523
2564
2521
2620
2662
2635
2657
2600
2592
2503
2388
2370
2294
2312
2490
2506
2668
2618
2661
2696
2627
2467
2415
2347
2196
2336
2731
2749
2581
2593
2548
2588
2618
2687
2470
2637
2624
2446
2382
2577
2466
2550
2359
2601
2706
2636
2451
2560
2611
2654
2530
2610
2627
2554
2541
2506
2490
2465
2446
2362
2413
2465
2588
2503
2530
2591
2628
2616
2567
2520
2567
2480
2392
2319
2368
2404
2462
2577
2706
2639
2550
2529
2659
2631
2534
2503
2433
2486
2411
2339
2323
2315
2516
2841
2674
2594
2598
2609
2632
2508
2235
2103
2347
2401
2198
2586
2959
2949
2809
2715
2651
2617
2575
2563
2535
2531
2567
2527
2560
2531
2468
2430
2395
2536
2555
2473
2429
2536
2500
2514
2535
2577
2525
2463
2427
2474
2470
2404
2571
2357
2405
2650
2596
2641
2637
2539
2612
2445
2457
2307
2321
2325
2403
2648
2482
2437
2630
2646
2538
2579
2554
2608
2638
2544
2572
2406
2545
2577
2607
2675
2580
2580
2556
2509
2448
2528
2477
2331
2488
2561
2548
2481
2572
2571
2581
2467
2483
2508
2434
2384
2349
2237
2431
2522
2758
2663
2558
2485
2563
2669
2602
2391
2390
2438
2488
2737
2558
2543
2626
2581
2511
2565
2462
2506
2556
2599
2522
2464
2428
2457
2437
2402
2513
2424
2434
2454
2463
2438
2531
2381
2610
2829
2692
2676
2645
2606
2566
2464
2519
2585
2555
2583
2593
2450
2341
2449
2481
2584
2524
2573
2429
2393
2513
2482
2295
2414
2587
2622
2602
2613
2619
2611
2592
2567
2484
2408
2241
2274
2336
2327
2624
2621
2520
2388
2265
2304
2474
2663
2784
2708
2601
2644
2561
2534
2499
2451
2366
2550
2511
2529
2554
2662
2646
2578
2600
2617
2397
2137
2314
2292
2439
2593
2598
2726
2650
2562
2523
2341
2202
2117
2271
2125
2255
2688
3083
2954
2725
2693
2672
2583
2565
2603
2568
2552
2547
2556
2616
2575
2444
2338
2219
2284
2204
2265
2216
2376
2842
2916
2802
2710
2614
2620
2591
2473
2417
2428
2430
2327
2440
2478
2474
2420
2366
2514
2662
2715
2364
2489
2557
2595
2596
2560
2488
2459
2438
2236
2228
2424
2405
2484
2558
2490
2636
2657
2691
2640
2625
2631
2503
2435
2457
2455
2429
2301
2796
2755
2542
2579
2525
2458
2493
2481
2478
2542
2401
2293
2306
2383
2418
2351
2270
2270
2385
2540
2542
2982
2916
2752
2532
2611
2515
2354
2306
2356
2304
2260
2442
2643
2730
2727
2781
2569
2503
2472
2552
2519
2475
2474
2536
2562
2554
2487
2442
2421
2362
2348
2315
2201
2414
2583
2605
2647
2516
2490
2454
2458
2403
2385
2380
2406
2571
2792
2687
2641
2581
2568
2506
2527
2517
2499
2457
2434
2353
2286
2338
2560
2585
2521
2488
2400
2387
2509
2461
2478
2443
2493
2711
2571
2450
2544
2487
2477
2524
2521
2506
2378
2513
2498
2512
2516
2379
2510
2372
2441
2461
2419
2570
2507
2508
2531
2539
2498
2496
2510
2463
2336
2437
2443
2460
2506
2595
2613
2596
2584
2544
2575
2493
2475
2402
2436
2489
2334
2522
2524
2463
2453
2519
2490
2497
2476
2426
2414
2552
2676
2634
2545
2417
2386
2453
2448
2515
2444
2326
2479
2499
2425
2605
2612
2439
2445
2560
2583
2552
2485
2445
2541
2557
2574
2498
2403
2405
2401
2341
2411
2521
2499
2536
2586
2558
2572
2535
2257
2247
2396
2251
2421
2715
2702
2636
2579
2577
2543
2544
2484
2402
2411
2407
2355
2384
2525
2525
2643
2539
2525
2505
2537
2421
2465
2484
2495
2486
2475
2441
2491
2479
2470
2496
2534
2530
2423
2435
2312
2364
2414
2390
2397
2587
2703
2677
2550
2469
2503
2449
2543
2540
2503
2456
2478
2523
2461
2440
2495
2421
2394
2342
2404
2530
2604
2549
2519
2612
2579
2399
2412
2435
2523
2666
2556
2527
2418
2451
2440
2402
2374
2512
2575
2481
2488
2471
2430
2521
2495
2450
2432
2355
2392
2455
2515
2449
2414
2375
2297
2424
2495
2598
2618
2491
2585
2580
2530
2568
2491
2444
2430
2434
2475
2309
2184
2228
2197
2373
2814
2615
2424
2585
2686
2652
2549
2559
2526
2545
2514
2489
2465
2517
2498
2446
2353
2388
2362
2407
2500
2572
2596
2539
2479
2363
2497
2549
2571
2523
2396
2442
2416
2523
2472
2439
2453
2416
2440
2452
2345
2406
2481
2483
2424
2537
2338
2359
2424
2513
2444
2426
2434
2449
2526
2615
2412
2364
2465
2383
2453
2495
2565
2611
2601
2559
2568
2493
2493
2421
2505
2518
2488
2497
2384
2424
2425
2481
2521
2481
2511
2491
2416
2389
2469
2406
2263
2367
2431
2496
2346
2346
2156
2402
2520
2590
2655
2644
2666
2474
2439
2290
2432
2502
2459
2489
2636
2471
2499
2516
2644
2523
2452
2432
2408
2382
2429
2515
2464
2389
2373
2401
2472
2463
2429
2453
2459
2384
2410
2534
2426
2422
2567
2634
2623
2582
2596
2522
2478
2453
2422
2445
2347
2326
2298
2390
2548
2624
2560
2380
2403
2213
2306
2610
2669
2544
2536
2601
2550
2429
2401
2504
2487
2363
2347
2225
2411
2444
2522
2555
2583
2575
2600
2587
2557
2514
2463
2388
2383
2436
2380
2429
2395
2468
2539
2522
2536
2516
2463
2431
2401
2345
2392
2466
2433
2426
2491
2454
2481
2449
2556
2561
2527
2408
2378
2424
2430
2319
2415
2435
2523
2568
2427
2469
2428
2439
2491
2394
2361
2451
2528
2548
2537
2477
2524
2456
2401
2493
2372
2380
2367
2449
2518
2468
2550
2541
2516
2516
2504
2526
2461
2400
2473
2455
2379
2389
2479
2376
2341
2416
2397
2395
2520
2511
2591
2645
2580
2434
2427
2458
2386
2445
2395
2460
2505
2542
2529
2453
2489
2509
2513
2396
2431
2472
2473
2390
2402
2441
2439
2365
2396
2367
2460
2605
2463
2398
2467
2496
2476
2445
2436
2523
2562
2594
2492
2393
2378
2431
2543
2526
2467
2410
2403
2401
2403
2339
2478
2571
2505
2392
2431
2505
2401
2358
2368
2506
2623
2576
2461
2423
2469
2445
2351
2369
2344
2401
2450
2523
2530
2489
2429
2467
2534
2657
2478
2506
2510
2531
2454
2342
2378
2484
2516
2465
2429
2417
2398
2420
2426
2352
2277
2475
2527
2314
2399
2609
2651
2569
2527
2514
2513
2469
2362
2395
2398
2466
2483
2280
2410
2400
2551
2576
2500
2439
2553
2529
2492
2484
2509
2459
2369
2397
2386
2352
2370
2444
2427
2359
2378
2574
2519
2513
2504
2427
2398
2344
2320
2381
2448
2475
2469
2458
2638
2684
2551
2495
2444
2463
2488
2462
2403
2442
2575
2479
2437
2447
2446
2493
2466
2483
2371
2383
2461
2459
2473
2459
2471
2431
2285
2365
2530
2666
2433
2418
2498
2486
2368
2470
2428
2555
2653
2544
2520
2419
2334
2274
2461
2485
2478
2425
2474
2523
2586
2546
2506
2358
2397
2401
2405
2402
2386
2457
2460
2380
2311
2275
2233
2394
2466
2535
2557
2585
2662
2641
2532
2455
2433
2413
2395
2473
2323
2489
2488
2488
2461
2432
2595
2601
2556
2446
2430
2444
2525
2468
2501
2538
2250
2323
2443
2354
2409
2382
2468
2467
2491
2451
2464
2526
2437
2270
2472
2533
2462
2367
2413
2502
2504
2550
2491
2562
2559
2462
2420
2465
2460
2416
2395
2414
2525
2547
2434
2415
2448
2466
2418
2392
2479
2359
2350
2310
2345
2319
2464
2469
2594
2611
2511
2588
2483
2434
2310
2186
2393
2465
2598
2714
2674
2575
2527
2486
2598
2509
2500
2348
2284
2189
2111
2219
2266
2402
2470
2602
2693
2595
2568
2641
2559
2445
2389
2498
2465
2523
2523
2463
2417
2415
2352
2319
2460
2468
2383
2467
2574
2558
2536
2468
2490
2499
2489
2462
2420
2396
2274
2341
2552
2630
2541
2529
2439
2359
2325
2204
2018
2205
2504
2436
2491
2478
2668
2660
2560
2602
2543
2551
2536
2506
2483
2377
2362
2367
2406
2475
2461
2583
2629
2507
2401
2382
2322
2297
2293
2304
2466
2697
2610
2481
2454
2486
2433
2457
2362
2404
2456
2465
2324
2390
2395
2368
2320
2492
2749
2667
2353
2309
2436
2398
2467
2452
2511
2395
2435
2465
2409
2278
2420
2610
2626
2613
2494
2507
2476
2312
2368
2328
2355
2252
2403
2446
2401
2473
2450
2683
2585
2577
2639
2677
2543
2517
2427
2352
2324
2357
2290
2342
2490
2507
2494
2481
2479
2497
2498
2476
2481
2450
2450
2419
2471
2469
2461
2471
2463
2426
2488
2463
2472
2481
2484
2480
2481
2446
2477
2445
2449
2442
2470
2473
2480
2443
2463
2491
2532
2518
2498
2509
2508
2485
2500
2470
2402
2426
2431
2459
2478
2477
2449
2485
2457
2444
2449
2488
2501
2500
2495
2488
2474
2476
2463
2484
2480
2488
2477
2470
2464
2458
2448
2452
2522
2517
2506
2497
2485
2473
2449
2454
2465
2478
2484
2461
2476
2507
2561
2502
2497
2507
2502
2497
2466
2459
2475
2445
2444
2472
2471
2465
2489
2453
2462
2487
2493
2473
2490
2504
2488
2440
2433
2426
2429
2431
2441
2460
2458
2426
2485
2478
2516
2517
2532
2501
2479
2504
2492
2468
2435
2404
2446
2479
2484
2502
2488
2459
2488
2472
2539
2507
2484
2495
2467
2432
2424
2468
2461
2475
2487
2500
2501
2465
2493
2500
2516
2515
2508
2513
2503
2522
2460
2448
2413
2421
2433
2473
2477
2481
2466
2440
2453
2481
2517
2510
2489
2484
2486
2482
2459
2471
2457
2445
2482
2478
2490
2487
2475
2424
2456
2500
2464
2450
2453
2458
2439
2416
2468
2438
2473
2484
2493
2477
2468
2497
2520
2548
2485
2495
2470
2492
2473
2436
2396
2449
2439
2458
2498
2471
2478
2464
2490
2523
2483
2506
2512
2487
2505
2495
2476
2410
2461
2481
2473
2482
2483
2457
2478
2478
2540
2502
2517
2477
2477
2469
2483
2468
2434
2410
2438
2466
2473
2494
2487
2459
2431
2501
2481
2477
2463
2465
2480
2458
2454
2441
2469
2461
2488
2488
2480
2498
2480
2515
2506
2523
2507
2482
2492
2483
2476
2459
2424
2430
2445
2466
2468
2454
2485
2483
2515
2545
2509
2503
2501
2470
2400
2477
2447
2425
2458
2467
2471
2476
2488
2464
2471
2522
2499
2515
2484
2499
2492
2478
2476
2485
2407
2431
2447
2465
2454
2489
2489
2493
2522
2491
2515
2511
2483
2502
2501
2449
2418
2421
2467
2485
2482
2487
2473
2464
2472
2508
2467
2479
2479
2486
2469
2470
2463
2478
2462
2463
2469
2468
2491
2508
2517
2467
2481
2483
2507
2501
2494
2468
2451
2438
2420
2444
2475
2475
2497
2467
2476
2488
2515
2489
2491
2510
2541
2450
2507
2482
2442
2414
2435
2478
2476
2449
2504
2461
2463
2480
2529
2488
2478
2463
2481
2458
2470
2484
2486
2458
2470
2486
2501
2488
2486
2489
2489
2494
2499
2485
2499
2450
2463
2486
2444
2468
2465
2478
2483
2486
2467
2479
2508
2503
2560
2511
2525
2507
2481
2462
2474
2469
2481
2474
2467
2475
2501
2473
2470
2491
2463
2480
2483
2493
2487
2459
2449
2418
2408
2428
2465
2476
2444
2413
2463
2508
2502
2486
2504
2500
2506
2466
2495
2453
2422
2451
2494
2481
2482
2485
2459
2477
2479
2517
2538
2502
2502
2489
2484
2493
2492
2503
2446
2471
2464
2489
2464
2474
2448
2521
2447
2473
2489
2486
2489
2467
2462
2482
2467
2483
2489
2467
2497
2495
2473
2495
2488
2503
2463
2520
2469
2459
2450
2436
2418
2436
2461
2465
2497
2574
2467
2469
2475
2481
2516
2490
2487
2465
2492
2446
2466
2478
2409
2461
2483
2497
2499
2497
2471
2465
2500
2524
2501
2492
2492
2484
2475
2448
2455
2474
2453
2484
2483
2475
2473
2493
2474
2473
2487
2494
2501
2491
2496
2484
2450
2446
2461
2475
2455
2472
2480
2468
2499
2491
2509
2514
2479
2485
2496
2518
2483
2455
2439
2490
2446
2471
2476
2467
2493
2478
2491
2476
2502
2491
2488
2483
2515
2459
2457
2436
2422
2455
2464
2483
2475
2456
2489
2517
2520
2516
2510
2510
2487
2495
2463
2446
2484
2441
2463
2469
2472
2432
2474
2493
2499
2500
2503
2498
2493
2486
2494
2476
2435
2426
2453
2474
2476
2472
2490
2480
2491
2463
2480
2466
2509
2490
2477
2496
2475
2465
2431
2469
2491
2476
2474
2479
2461
2457
2504
2475
2474
2485
2473
2466
2442
2447
2488
2458
2487
2453
2469
2465
2453
2478
2495
2478
2437
2489
2444
2510
2504
2487
2460
2446
2434
2485
2491
2491
2502
2480
2461
2494
2505
2517
2486
2492
2513
2473
2471
2452
2465
2466
2471
2480
2459
2465
2488
2478
2464
2518
2508
2486
2498
2484
2425
2510
2444
2500
2467
2466
2466
2484
2496
2486
2511
2464
2481
2504
2507
2479
2484
2484
2439
2436
2447
2435
2453
2449
2450
2434
2411
2470
2495
2496
2471
2492
2468
2440
2490
2476
2441
2503
2473
2499
2495
2502
2525
2499
2509
2516
2518
2497
2457
2491
2454
2488
2460
2412
2415
2421
2482
2496
2496
2482
2466
2485
2508
2489
2486
2515
2455
2481
2467
2427
2487
2458
2468
2460
2474
2490
2509
2481
2444
2473
2500
2474
2476
2495
2476
2451
2422
2421
2494
2473
2484
2485
2461
2513
2424
2507
2528
2484
2485
2476
2493
2493
2486
2445
2427
2412
2437
2461
2476
2457
2459
2480
2453
2494
2500
2498
2491
2501
2475
2465
2455
2470
2455
2489
2478
2522
2510
2470
2476
2489
2504
2502
2495
2500
2498
2463
2467
2452
2485
2466
2483
2473
2448
2478
2490
2498
2526
2518
2503
2436
2474
2489
2496
2482
2432
2409
2460
2484
2463
2456
2475
2529
2536
2527
2514
2510
2499
2477
2478
2467
2427
2453
2436
2454
2441
2471
2484
2487
2534
2509
2513
2496
2487
2484
2492
2497
2471
2435
2429
2427
2446
2449
2473
2479
2486
2501
2504
2511
2537
2510
2511
2503
2484
2453
2409
2462
2445
2438
2469
2457
2471
2492
2463
2460
2483
2505
2509
2514
2495
2517
2489
2449
2444
2462
2477
2488
2466
2490
2507
2488
2438
2490
2492
2468
2461
2470
2460
2459
2447
2463
2453
2475
2474
2467
2466
2466
2439
2458
2464
2472
2488
2472
2484
2478
2477
2434
2444
2493
2483
2492
2502
2486
2491
2504
2496
2479
2491
2496
2501
2495
2474
2455
2489
2494
2486
2490
2479
2484
2485
2463
2449
2468
2521
2498
2504
2508
2491
2463
2451
2473
2424
2484
2467
2396
2502
2494
2470
2443
2476
2522
2520
2497
2488
2477
2478
2460
2442
2485
2481
2464
2452
2460
2491
2512
2512
2500
2498
2487
2498
2471
2501
2489
2434
2441
2496
2487
2486
2485
2475
2482
2516
2508
2497
2507
2493
2488
2475
2444
2459
2430
2466
2462
2472
2482
2457
2488
2472
2501
2512
2511
2510
2493
2495
2494
2460
2435
2428
2468
2465
2457
2449
2487
2446
2430
2434
2519
2546
2509
2495
2496
2451
2454
2470
2456
2458
2483
2458
2466
2442
2493
2489
2478
2493
2504
2497
2492
2499
2470
2480
2466
2469
2447
2462
2455
2465
2485
2481
2500
2467
2487
2486
2506
2517
2489
2509
2483
2428
2458
2486
2500
2505
2499
2494
2505
2513
2483
2497
2512
2490
2495
2493
2489
2482
2420
2468
2456
2478
2477
2506
2462
2480
2500
2527
2500
2500
2501
2491
2483
2461
2467
2470
2445
2483
2478
2470
2472
2489
2469
2464
2478
2493
2506
2493
2503
2502
2458
2416
2461
2444
2466
2479
2502
2468
2474
2486
2505
2487
2511
2498
2508
2485
2459
2453
2479
2483
2452
2481
2470
2464
2456
2472
2455
2476
2492
2511
2510
2509
2482
2467
2485
2449
2489
2482
2494
2487
2496
2512
2479
2487
2504
2487
2470
2474
2478
2481
2498
2465
2464
2460
2456
2484
2487
2476
2499
2492
2476
2470
2440
2486
2489
2473
2470
2435
2449
2465
2451
2458
2463
2469
2450
2473
2478
2506
2535
2506
2494
2483
2479
2500
2471
2446
2490
2454
2468
2485
2451
2489
2461
2480
2447
2460
2475
2498
2492
2509
2505
2499
2482
2462
2467
2495
2500
2497
2485
2476
2478
2480
2503
2499
2507
2495
2478
2462
2463
2444
2454
2429
2485
2478
2490
2459
2502
2502
2499
2498
2485
2491
2481
2489
2487
2456
2455
2465
2473
2482
2492
2514
2456
2477
2474
2520
2508
2477
2486
2475
2489
2467
2438
2429
2450
2464
2473
2506
2504
2463
2471
2484
2500
2496
2493
2499
2453
2446
2445
2466
2471
2489
2477
2473
2475
2478
2482
2508
2565
2535
2523
2524
2520
2493
2552
2469
2461
2480
2462
2480
2484
2485
2465
2508
2510
2524
2520
2481
2491
2478
2482
2478
2476
2474
2453
2445
2456
2480
2470
2464
2496
2520
2534
2510
2509
2521
2505
2487
2487
2446
2432
2417
2467
2465
2455
2444
2472
2426
2453
2482
2511
2499
2513
2513
2489
2472
2464
2459
2492
2478
2477
2468
2466
2481
2497
2530
2538
2477
2506
2487
2464
2506
2486
2445
2420
2467
2492
2501
2498
2503
2461
2465
2442
2502
2494
2486
2479
2470
2466
2484
2439
2431
2455
2472
2483
2490
2496
2446
2498
2492
2501
2498
2511
2509
2494
2484
2464
2481
2487
2494
2476
2496
2489
2462
2501
2504
2535
2505
2455
2487
2488
2473
2487
2465
2478
2394
2413
2477
2463
2491
2481
2482
2460
2440
2455
2500
2473
2457
2445
2435
2436
2489
2531
2516
2496
2505
2498
2527
2492
2528
2504
2514
2522
2516
2466
2485
2475
2475
2425
2462
2460
2487
2484
2453
2468
2467
2488
2439
2505
2502
2501
2509
2477
2485
2470
2427
2455
2485
2480
2488
2476
2458
2498
2522
2531
2508
2503
2507
2472
2491
2467
2456
2463
2478
2458
2466
2431
2461
2472
2454
2453
2456
2478
2515
2520
2564
2521
2482
2465
2449
2448
2493
2492
2513
2490
2481
2465
2455
2510
2500
2528
2488
2484
2494
2464
2454
2453
2453
2484
2469
2470
2495
2467
2476
2497
2491
2496
2497
2551
2469
2458
2461
2497
2438
2462
2485
2473
2492
2526
2487
2538
2494
2506
2471
2509
2503
2489
2482
2454
2495
2437
2486
2466
2492
2437
2412
2485
2487
2454
2456
2512
2487
2491
2509
2501
2452
2431
2473
2441
2460
2451
2445
2487
2502
2550
2509
2514
2502
2503
2512
2499
2467
2420
2453
2481
2481
2493
2492
2500
2469
2475
2434
2487
2503
2489
2479
2486
2462
2428
2402
2462
2478
2478
2483
2493
2466
2512
2507
2535
2523
2495
2506
2492
2472
2500
2440
2472
2461
2459
2476
2468
2483
2490
2484
2519
2493
2499
2493
2482
2478
2477
2439
2423
2421
2395
2420
2432
2508
2471
2475
2497
2547
2531
2493
2507
2514
2500
2478
2462
2447
2461
2469
2487
2490
2471
2467
2497
2520
2501
2478
2499
2503
2498
2434
2476
2461
2409
2467
2469
2484
2490
2497
2482
2466
2520
2513
2518
2493
2502
2501
2509
2496
2464
2403
2427
2495
2479
2484
2491
2465
2470
2525
2530
2498
2489
2486
2486
2457
2460
2463
2500
2476
2441
2476
2481
2494
2477
2473
2515
2493
2491
2495
2466
2516
2497
2490
2394
2429
2459
2472
2490
2584
2488
2435
2478
2530
2512
2516
2512
2510
2503
2478
2484
2467
2437
2473
2466
2486
2510
2490
2492
2508
2468
2481
2481
2492
2446
2420
2435
2441
2445
2470
2466
2491
2496
2415
2478
2490
2480
2520
2541
2511
2509
2488
2494
2465
2485
2478
2461
2476
2477
2487
2482
2483
2508
2497
2493
2526
2517
2504
2491
2461
2462
2477
2477
2461
2459
2456
2463
2418
2466
2511
2536
2542
2561
2560
2525
2508
2524
2499
2474
2425
2478
2447
2486
2481
2467
2464
2463
2503
2509
2490
2476
2487
2481
2468
2487
2465
2482
2470
2492
2485
2474
2475
2490
2514
2506
2505
2501
2505
2505
2498
2447
2461
2461
2475
2466
2483
2479
2468
2471
2496
2484
2512
2492
2478
2489
2491
2494
2475
2458
2436
2433
2468
2465
2468
2471
2488
2510
2497
2442
2488
2494
2524
2514
2507
2481
2480
2441
2405
2462
2478
2472
2470
2436
2499
2481
2534
2512
2509
2508
2499
2444
2467
2470
2475
2454
2447
2479
2489
2501
2479
2496
2459
2503
2510
2506
2492
2455
2495
2476
2476
2463
2493
2476
2471
2508
2468
2509
2521
2530
2457
2484
2471
2489
2499
2455
2474
2474
2483
2479
2487
2491
2478
2492
2486
2490
2447
2508
2503
2511
2486
2456
2442
2437
2429
2440
2452
2442
2492
2502
2466
2455
2461
2419
2391
2390
2390
2403
2469
2532
2556
2521
2532
2569
2558
2540
2496
2416
2415
2436
2458
2483
2490
2505
2452
2498
2503
2546
2515
2582
2538
2488
2471
2478
2484
2502
2495
2490
2460
2484
2536
2491
2513
2470
2540
2570
2555
2505
2515
2506
2484
2459
2453
2491
2511
2493
2450
2424
2464
2431
2411
2414
2433
2515
2557
2560
2441
2412
2438
2480
2483
2459
2431
2425
2470
2431
2438
2477
2423
2500
2578
2550
2528
2507
2494
2554
2550
2522
2515
2485
2540
2532
2524
2510
2502
2535
2508
2508
2462
2492
2479
2450
2414
2454
2484
2509
2486
2464
2542
2484
2425
2455
2492
2481
2494
2577
2536
2509
2462
2459
2476
2430
2442
2519
2499
2495
2543
2554
2489
2473
2409
2477
2502
2515
2486
2522
2543
2515
2518
2475
2433
2504
2608
2519
2344
2431
2457
2474
2535
2556
2536
2517
2458
2442
2437
2414
2400
2443
2523
2538
2513
2497
2462
2490
2463
2456
2511
2510
2479
2457
2462
2508
2526
2487
2452
2470
2497
2574
2541
2478
2469
2482
2466
2499
2470
2440
2451
2492
2520
2491
2541
2601
2541
2461
2435
2470
2462
2493
2479
2476
2429
2462
2440
2471
2502
2496
2457
2512
2518
2509
2485
2480
2431
2453
2479
2498
2457
2448
2452
2488
2474
2522
2528
2491
2475
2501
2462
2477
2431
2472
2487
2457
2461
2491
2470
2450
2428
2432
2415
2517
2519
2492
2422
2403
2402
2469
2447
2441
2535
2535
2526
2479
2482
2500
2468
2495
2453
2485
2493
2489
2501
2493
2456
2505
2507
2534
2518
2510
2481
2460
2451
2474
2506
2515
2506
2484
2492
2502
2513
2430
2451
2484
2494
2500
2492
2523
2514
2474
2444
2475
2489
2526
2465
2423
2463
2424
2443
2447
2427
2457
2493
2530
2553
2528
2453
2458
2484
2491
2522
2477
2416
2440
2460
2474
2500
2538
2537
2487
2462
2471
2506
2451
2476
2489
2485
2511
2497
2495
2535
2536
2515
2472
2429
2466
2486
2471
2491
2419
2420
2446
2488
2479
2529
2548
2504
2487
2524
2481
2471
2452
2460
2399
2408
2427
2468
2490
2460
2438
2510
2542
2518
2506
2545
2523
2481
2444
2422
2387
2386
2381
2455
2489
2532
2539
2536
2552
2538
2534
2509
2526
2486
2499
2485
2465
2416
2409
2443
2442
2442
2501
2500
2526
2503
2522
2541
2511
2550
2508
2471
2446
2505
2398
2458
2486
2583
2502
2494
2487
2558
2570
2504
2424
2443
2526
2527
2471
2427
2429
2451
2423
2389
2396
2380
2436
2499
2445
2440
2430
2462
2552
2532
2526
2500
2421
2492
2470
2398
2401
2341
2428
2473
2431
2530
2585
2542
2539
2515
2529
2549
2549
2499
2471
2454
2417
2440
2447
2487
2473
2555
2481
2418
2522
2568
2547
2543
2418
2427
2478
2522
2505
2421
2394
2472
2505
2461
2448
2484
2485
2484
2480
2492
2493
2418
2458
2440
2395
2338
2377
2370
2462
2511
2509
2556
2510
2506
2507
2609
2639
2582
2406
2339
2378
2425
2385
2408
2411
2337
2422
2469
2461
2493
2585
2619
2514
2512
2426
2395
2392
2443
2545
2451
2446
2416
2486
2580
2522
2527
2440
2320
2557
2502
2519
2508
2519
2523
2504
2496
2468
2443
2441
2388
2318
2345
2426
2460
2557
2624
2540
2519
2502
2555
2506
2504
2511
2504
2434
2393
2383
2427
2423
2468
2484
2510
2447
2427
2441
2463
2501
2456
2431
2432
2411
2402
2439
2462
2459
2424
2397
2475
2557
2571
2552
2489
2462
2485
2508
2445
2485
2490
2498
2451
2410
2484
2496
2435
2439
2446
2432
2480
2489
2518
2477
2462
2472
2403
2397
2414
2441
2450
2487
2490
2413
2374
2454
2553
2606
2583
2559
2522
2512
2427
2465
2443
2539
2434
2412
2424
2467
2476
2461
2436
2535
2537
2571
2479
2446
2475
2506
2499
2492
2375
2392
2478
2483
2483
2480
2521
2539
2454
2449
2425
2449
2455
2455
2452
2445
2446
2385
2406
2404
2359
2449
2475
2490
2550
2543
2527
2487
2526
2452
2384
2360
2443
2451
2457
2455
2551
2385
2512
2580
2583
2534
2539
2508
2506
2540
2473
2439
2518
2467
2401
2500
2461
2447
2455
2452
2425
2480
2449
2468
2496
2516
2513
2496
2439
2443
2505
2467
2462
2433
2485
2559
2446
2490
2440
2401
2421
2465
2456
2472
2461
2432
2441
2403
2425
2492
2521
2455
2426
2442
2427
2463
2459
2493
2463
2447
2396
2347
2427
2430
2412
2461
2440
2401
2432
2470
2484
2430
2499
2508
2557
2571
2563
2526
2540
2552
2543
2439
2336
2425
2459
2456
2487
2441
2478
2458
2422
2431
2481
2497
2442
2477
2490
2503
2432
2460
2384
2380
2403
2476
2456
2448
2522
2517
2518
2544
2516
2430
2421
2471
2421
2446
2408
2372
2373
2369
2417
2486
2440
2508
2528
2485
2493
2477
2461
2432
2406
2428
2443
2458
2469
2434
2457
2547
2524
2453
2472
2514
2518
2519
2531
2503
2457
2425
2379
2388
2407
2463
2501
2512
2428
2416
2518
2496
2455
2466
2506
2471
2483
2486
2522
2495
2457
2465
2477
2467
2411
2379
2475
2542
2524
2504
2479
2467
2441
2421
2379
2355
2376
2397
2450
2473
2462
2493
2460
2482
2469
2355
2308
2428
2487
2450
2443
2465
2463
2535
2597
2521
2486
2490
2476
2398
2507
2493
2521
2541
2520
2454
2401
2462
2442
2431
2412
2421
2498
2419
2435
2448
2493
2518
2530
2502
2435
2465
2500
2483
2428
2455
2382
2398
2475
2479
2507
2551
2462
2444
2471
2554
2458
2388
2444
2519
2530
2406
2408
2407
2485
2378
2403
2489
2484
2413
2450
2561
2534
2445
2457
2518
2503
2470
2494
2439
2368
2357
2426
2472
2478
2504
2418
2411
2477
2453
2386
2312
2483
2483
2412
2518
2575
2548
2473
2446
2489
2512
2432
2407
2463
2513
2472
2374
2382
2454
2484
2543
2533
2447
2454
2485
2469
2510
2543
2571
2469
2334
2345
2477
2455
2480
2511
2484
2451
2437
2472
2487
2413
2434
2474
2427
2396
2429
2438
2385
2399
2497
2503
2505
2505
2481
2394
2349
2449
2504
2465
2424
2415
2459
2485
2436
2447
2538
2534
2448
2444
2439
2409
2454
2482
2440
2448
2467
2428
2480
2527
2577
2524
2445
2397
2465
2496
2521
2422
2414
2422
2421
2434
2463
2493
2500
2478
2461
2495
2464
2476
2484
2495
2426
2469
2500
2469
2404
2449
2463
2465
2417
2438
2431
2477
2452
2537
2471
2473
2417
2463
2461
2462
2511
2491
2426
2385
2424
2480
2471
2466
2463
2544
2549
2535
2400
2351
2491
2404
2362
2371
2463
2413
2380
2402
2490
2520
2473
2451
2480
2502
2535
2503
2506
2515
2481
2450
2452
2510
2474
2449
2462
2455
2453
2465
2468
2498
2465
2477
2449
2446
2445
2410
2363
2455
2414
2408
2416
2506
2515
2408
2541
2525
2549
2463
2498
2484
2481
2449
2454
2460
2441
2493
2432
2461
2463
2485
2515
2502
2485
2499
2510
2532
2525
2455
2439
2406
2425
2441
2428
2381
2375
2450
2494
2513
2511
2494
2487
2492
2483
2428
2485
2494
2513
2572
2548
2342
2311
2407
2392
2343
2437
2492
2486
2516
2548
2510
2480
2460
2434
2538
2481
2446
2442
2444
2471
2496
2441
2425
2553
2564
2563
2485
2472
2473
2457
2444
2477
2463
2440
2439
2409
2417
2451
2487
2568
2519
2400
2501
2504
2489
2458
2444
2489
2477
2484
2472
2466
2405
2425
2428
2481
2477
2458
2503
2509
2479
2443
2477
2449
2411
2417
2423
2394
2411
2435
2475
2488
2504
2514
2484
2462
2454
2441
2428
2389
2449
2411
2381
2438
2427
2478
2527
2499
2535
2567
2552
2543
2480
2520
2491
2404
2384
2445
2553
2507
2461
2472
2486
2476
2456
2498
2506
2506
2532
2471
2474
2496
2538
2552
2476
2435
2430
2434
2438
2473
2480
2461
2441
2451
2444
2527
2537
2626
2536
2470
2471
2478
2468
2389
2431
2458
2406
2390
2443
2471
2502
2474
2560
2512
2484
2476
2381
2375
2395
2439
2462
2486
2481
2441
2479
2552
2582
2506
2502
2474
2481
2489
2492
2495
2455
2404
2493
2447
2457
2452
2401
2474
2442
2422
2449
2510
2483
2484
2498
2568
2555
2480
2446
2447
2494
2449
2405
2450
2464
2471
2447
2495
2541
2517
2470
2451
2490
2499
2525
2494
2452
2427
2502
2463
2486
2477
2518
2495
2438
2505
2476
2456
2489
2478
2391
2389
2352
2418
2507
2502
2523
2468
2471
2517
2543
2538
2491
2483
2452
2446
2484
2432
2418
2475
2530
2527
2492
2500
2486
2424
2404
2440
2443
2454
2433
2511
2574
2544
2496
2444
2458
2468
2491
2473
2447
2514
2499
2476
2463
2454
2536
2503
2516
2508
2493
2475
2499
2419
2429
2433
2420
2494
2476
2446
2469
2468
2518
2527
2461
2431
2456
2478
2516
2514
2503
2544
2472
2464
2469
2404
2421
2500
2461
2457
2475
2383
2401
2486
2529
2554
2446
2434
2486
2489
2584
2547
2529
2503
2415
2481
2490
2493
2514
2541
2541
2540
2448
2445
2366
2372
2431
2349
2321
2467
2514
2491
2496
2548
2547
2543
2513
2498
2501
2489
2490
2470
2411
2378
2496
2542
2549
2489
2494
2480
2500
2526
2470
2378
2417
2483
2472
2443
2413
2463
2496
2499
2420
2406
2434
2540
2595
2577
2480
2356
2433
2521
2581
2529
2454
2462
2467
2481
2508
2465
2503
2498
2508
2540
2457
2441
2456
2493
2525
2464
2471
2513
2460
2460
2490
2497
2530
2514
2544
2487
2471
2485
2430
2472
2430
2453
2455
2401
2393
2434
2464
2491
2459
2415
2438
2434
2472
2498
2490
2477
2475
2495
2492
2537
2525
2491
2450
2443
2478
2466
2481
2451
2455
2553
2527
2475
2511
2516
2464
2502
2500
2477
2576
2545
2439
2494
2489
2490
2482
2478
2545
2520
2514
2501
2469
2451
2457
2474
2435
2503
2479
2477
2469
2477
2496
2511
2546
2538
2519
2509
2446
2394
2489
2458
2442
2407
2388
2481
2588
2527
2413
2468
2448
2470
2421
2414
2470
2464
2486
2479
2419
2393
2413
2420
2412
2494
2543
2542
2541
2556
2524
2520
2489
2469
2482
2467
2451
2429
2483
2517
2524
2503
2490
2505
2487
2485
2505
2489
2510
2497
2484
2498
2491
2454
2403
2398
2444
2493
2524
2512
2523
2493
2499
2500
2534
2518
2490
2483
2485
2516
2432
2480
2465
2410
2424
2441
2467
2452
2420
2416
2413
2533
2561
2513
2485
2446
2518
2508
2516
2537
2435
2403
2461
2450
2429
2417
2435
2511
2487
2499
2460
2459
2507
2504
2581
2557
2450
2450
2426
2464
2530
2524
2580
2549
2489
2476
2521
2514
2476
2435
2511
2486
2469
2450
2392
2477
2531
2527
2514
2471
2493
2523
2391
2380
2477
2520
2521
2551
2517
2458
2459
2483
2498
2491
2461
2417
2446
2420
2387
2407
2495
2544
2546
2506
2480
2501
2484
2419
2457
2494
2463
2466
2402
2388
2396
2412
2517
2466
2611
2566
2503
2473
2437
2455
2518
2549
2530
2511
2495
2518
2461
2434
2518
2506
2519
2478
2525
2508
2478
2473
2462
2489
2488
2470
2477
2496
2461
2525
2474
2490
2469
2444
2324
2454
2554
2629
2579
2447
2384
2494
2477
2521
2526
2465
2471
2503
2467
2368
2368
2463
2496
2513
2531
2510
2444
2475
2491
2445
2445
2455
2453
2521
2594
2594
2502
2410
2472
2565
2516
2466
2471
2513
2517
2514
2437
2443
2456
2544
2571
2538
2436
2414
2424
2380
2438
2563
2506
2493
2484
2518
2602
2511
2510
2491
2505
2463
2420
2414
2446
2510
2502
2556
2464
2450
2488
2512
2516
2495
2494
2480
2450
2434
2500
2529
2511
2441
2457
2490
2487
2475
2460
2492
2584
2490
2526
2430
2421
2451
2516
2508
2406
2442
2441
2512
2549
2474
2427
2463
2416
2444
2528
2510
2534
2511
2557
2525
2478
2444
2502
2467
2464
2424
2468
2652
2503
2456
2315
2390
2518
2575
2556
2547
2519
2477
2469
2480
2500
2476
2398
2408
2392
2448
2505
2493
2440
2459
2443
2418
2458
2511
2512
2457
2483
2479
2519
2476
2499
2485
2436
2465
2419
2428
2521
2549
2544
2538
2395
2463
2556
2515
2388
2407
2452
2516
2424
2426
2415
2451
2551
2511
2419
2535
2560
2605
2523
2481
2471
2367
2354
2544
2459
2482
2539
2418
2470
2496
2556
2526
2515
2500
2539
2448
2535
2502
2521
2571
2545
2426
2402
2368
2458
2580
2567
2515
2463
2453
2548
2543
2490
2458
2471
2351
2387
2426
2361
2402
2511
2547
2521
2509
2481
2508
2508
2412
2422
2476
2499
2452
2427
2471
2449
2458
2427
2437
2510
2460
2559
2474
2348
2569
2544
2454
2554
2588
2548
2553
2532
2472
2458
2427
2429
2464
2492
2495
2542
2553
2531
2573
2504
2511
2504
2507
2463
2441
2437
2414
2390
2453
2557
2525
2471
2409
2431
2462
2468
2478
2444
2528
2505
2435
2423
2452
2514
2496
2529
2524
2498
2517
2545
2510
2510
2435
2314
2415
2303
2414
2445
2423
2506
2538
2352
2517
2568
2518
2529
2503
2503
2490
2471
2478
2490
2569
2607
2523
2492
2424
2456
2451
2477
2463
2534
2536
2493
2485
2481
2549
2447
2436
2458
2472
2593
2488
2493
2436
2474
2580
2523
2439
2445
2397
2382
2432
2502
2524
2508
2501
2478
2520
2591
2575
2435
2433
2476
2367
2466
2455
2489
2622
2577
2506
2491
2438
2420
2476
2518
2589
2579
2432
2347
2409
2424
2449
2449
2391
2390
2394
2477
2422
2434
2527
2586
2546
2597
2549
2508
2447
2493
2557
2512
2500
2475
2435
2479
2463
2481
2492
2522
2490
2463
2469
2450
2467
2441
2459
2492
2477
2507
2472
2534
2583
2551
2499
2372
2408
2480
2506
2435
2450
2453
2452
2489
2475
2439
2435
2547
2579
2540
2503
2490
2502
2549
2469
2438
2439
2516
2515
2473
2439
2464
2460
2531
2559
2511
2451
2394
2462
2443
2379
2529
2533
2452
2481
2491
2531
2478
2451
2483
2433
2400
2420
2523
2439
2477
2542
2625
2594
2492
2494
2493
2444
2497
2478
2411
2483
2467
2457
2581
2591
2577
2546
2558
2506
2524
2447
2392
2398
2412
2477
2527
2486
2498
2466
2498
2460
2449
2536
2532
2529
2478
2500
2480
2423
2398
2431
2478
2546
2540
2514
2493
2511
2493
2513
2503
2464
2485
2422
2390
2332
2320
2388
2436
2453
2484
2640
2554
2490
2539
2593
2439
2519
2423
2494
2526
2473
2433
2465
2523
2537
2502
2463
2515
2523
2508
2536
2515
2459
2489
2449
2419
2512
2538
2526
2509
2473
2471
2491
2546
2499
2495
2491
2477
2456
2531
2604
2491
2352
2486
2504
2497
2516
2514
2509
2501
2502
2511
2487
2466
2431
2401
2371
2432
2486
2520
2482
2505
2514
2439
2457
2453
2532
2480
2503
2501
2486
2515
2428
2437
2457
2437
2366
2259
2378
2515
2496
2454
2664
2658
2605
2525
2529
2475
2541
2570
2552
2557
2556
2503
2511
2497
2500
2477
2487
2483
2491
2496
2555
2523
2531
2429
2512
2513
2500
2436
2473
2500
2517
2503
2452
2414
2443
2485
2492
2497
2548
2583
2592
2500
2410
2431
2480
2441
2378
2444
2471
2467
2464
2513
2520
2466
2413
2383
2493
2511
2462
2476
2436
2421
2376
2465
2495
2533
2532
2452
2452
2463
2435
2522
2525
2527
2501
2510
2561
2572
2577
2546
2472
2450
2509
2529
2493
2534
2483
2444
2452
2483
2544
2583
2523
2506
2517
2518
2478
2475
2501
2483
2462
2474
2463
2516
2452
2430
2531
2521
2518
2543
2544
2503
2482
2495
2457
2415
2450
2467
2491
2559
2539
2520
2522
2480
2362
2439
2461
2455
2461
2537
2540
2562
2536
2468
2535
2486
2510
2389
2356
2399
2410
2429
2397
2454
2450
2470
2540
2514
2528
2475
2448
2407
2517
2510
2466
2476
2490
2518
2595
2580
2537
2473
2489
2456
2465
2507
2515
2545
2509
2539
2557
2476
2452
2545
2522
2549
2468
2432
2492
2560
2583
2559
2461
2491
2482
2503
2522
2419
2445
2500
2453
2463
2507
2500
2481
2486
2501
2577
2520
2377
2398
2440
2458
2541
2529
2541
2540
2557
2509
2457
2437
2477
2415
2479
2505
2485
2365
2437
2419
2420
2522
2590
2540
2589
2587
2610
2469
2511
2499
2470
2485
2474
2475
2440
2470
2519
2550
2507
2416
2506
2534
2504
2512
2543
2588
2541
2456
2446
2478
2500
2470
2541
2516
2460
2425
2484
2570
2538
2474
2515
2483
2520
2485
2485
2518
2509
2507
2433
2460
2455
2501
2446
2452
2531
2536
2575
2548
2489
2439
2425
2417
2390
2514
2524
2507
2512
2483
2487
2461
2511
2503
2544
2535
2563
2520
2525
2454
2442
2464
2454
2471
2555
2574
2584
2532
2493
2502
2520
2484
2497
2388
2525
2499
2542
2494
2452
2421
2468
2411
2452
2583
2585
2526
2427
2431
2508
2550
2477
2405
2496
2551
2585
2543
2440
2477
2508
2508
2526
2476
2432
2497
2496
2513
2471
2467
2501
2533
2478
2461
2475
2498
2464
2521
2539
2513
2531
2475
2549
2547
2456
2479
2485
2532
2503
2445
2443
2492
2515
2486
2452
2454
2484
2507
2464
2522
2533
2506
2500
2510
2452
2469
2598
2689
2552
2477
2486
2489
2457
2482
2504
2503
2523
2503
2461
2451
2518
2499
2493
2489
2475
2423
2452
2496
2530
2523
2505
2502
2487
2556
2583
2437
2452
2475
2412
2348
2443
2466
2510
2468
2485
2571
2544
2552
2572
2581
2542
2534
2613
2600
2531
2447
2336
2410
2494
2467
2499
2484
2553
2515
2561
2554
2535
2546
2556
2517
2496
2482
2388
2344
2390
2418
2445
2520
2516
2538
2514
2562
2502
2551
2502
2471
2441
2539
2585
2593
2480
2475
2499
2492
2472
2471
2483
2472
2435
2496
2487
2510
2512
2560
2511
2501
2531
2545
2496
2458
2504
2524
2456
2474
2521
2529
2573
2569
2485
2400
2490
2511
2540
2533
2518
2521
2505
2484
2506
2509
2468
2404
2378
2491
2481
2465
2558
2601
2542
2499
2438
2375
2484
2549
2607
2494
2445
2484
2503
2490
2475
2445
2501
2531
2584
2575
2552
2553
2541
2554
2516
2498
2416
2450
2568
2650
2546
2512
2496
2538
2490
2507
2494
2481
2479
2497
2498
2476
2481
2450
2450
2419
2471
2469
2461
2471
2463
2426
2488
2463
2472
2481
2484
2480
2481
2446
2477
2445
2449
2442
2470
2473
2480
2443
2463
2491
2532
2518
2498
2509
2508
2485
2500
2470
2402
2426
2431
2459
2478
2477
2449
2485
2457
2444
2449
2488
2501
2500
2495
2488
2474
2476
2463
2484
2480
2488
2477
2470
2464
2458
2448
2452
2522
2517
2506
2497
2485
2473
2449
2454
2465
2478
2484
2461
2476
2507
2561
2502
2497
2507
2502
2497
2466
2459
2475
2445
2444
2472
2471
2465
2489
2453
2462
2487
2493
2473
2490
2504
2488
2440
2433
2426
2429
2431
2441
2460
2458
2426
2485
2478
2516
2517
2532
2501
2479
2504
2492
2468
2435
2404
2446
2479
2484
2502
2488
2459
2488
2472
2539
2507
2484
2495
2467
2432
2424
2468
2461
2475
2487
2500
2501
2465
2493
2500
2516
2515
2508
2513
2503
2522
2460
2448
2413
2421
2433
2473
2477
2481
2466
2440
2453
2481
2517
2510
2489
2484
2486
2482
2459
2471
2457
2445
2482
2478
2490
2487
2475
2424
2456
2500
2464
2450
2453
2458
2439
2416
2468
2438
2473
2484
2493
2477
2468
2497
2520
2548
2485
2495
2470
2492
2473
2436
2396
2449
2439
2458
2498
2471
2478
2464
2490
2523
2483
2506
2512
2487
2505
2495
2476
2410
2461
2481
2473
2482
2483
2457
2478
2478
2540
2502
2517
2477
2477
2469
2483
2468
2434
2410
2438
2466
2473
2494
2487
2459
2431
2501
2481
2477
2463
2465
2480
2458
2454
2441
2469
2461
2488
2488
2480
2498
2480
2515
2506
2523
2507
2482
2492
2483
2476
2459
2424
2430
2445
2466
2468
2454
2485
2483
2515
2545
2509
2503
2501
2470
2400
2477
2447
2425
2458
2467
2471
2476
2488
2464
2471
2522
2499
2515
2484
2499
2492
2478
2476
2485
2407
2431
2447
2465
2454
2489
2489
2493
2522
2491
2515
2511
2483
2502
2501
2449
2418
2421
2467
2485
2482
2487
2473
2464
2472
2508
2467
2479
2479
2486
2469
2470
2463
2478
2462
2463
2469
2468
2491
2508
2517
2467
2481
2483
2507
2501
2494
2468
2451
2438
2420
2444
2475
2475
2497
2467
2476
2488
2515
2489
2491
2510
2541
2450
2507
2482
2442
2414
2435
2478
2476
2449
2504
2461
2463
2480
2529
2488
2478
2463
2481
2458
2470
2484
2486
2458
2470
2486
2501
2488
2486
2489
2489
2494
2499
2485
2499
2450
2463
2486
2444
2468
2465
2478
2483
2486
2467
2479
2508
2503
2560
2511
2525
2507
2481
2462
2474
2469
2481
2474
2467
2475
2501
2473
2470
2491
2463
2480
2483
2493
2487
2459
2449
2418
2408
2428
2465
2476
2444
2413
2463
2508
2502
2486
2504
2500
2506
2466
2495
2453
2422
2451
2494
2481
2482
2485
2459
2477
2479
2517
2538
2502
2502
2489
2484
2493
2492
2503
2446
2471
2464
2489
2464
2474
2448
2521
2447
2473
2489
2486
2489
2467
2462
2482
2467
2483
2489
2467
2497
2495
2473
2495
2488
2503
2463
2520
2469
2459
2450
2436
2418
2436
2461
2465
2497
2574
2467
2469
2475
2481
2516
2490
2487
2465
2492
2446
2466
2478
2409
2461
2483
2497
2499
2497
2471
2465
2500
2524
2501
2492
2492
2484
2475
2448
2455
2474
2453
2484
2483
2475
2473
2493
2474
2473
2487
2494
2501
2491
2496
2484
2450
2446
2461
2475
2455
2472
2480
2468
2499
2491
2509
2514
2479
2485
2496
2518
2483
2455
2439
2490
2446
2471
2476
2467
2493
2478
2491
2476
2502
2491
2488
2483
2515
2459
2457
2436
2422
2455
2464
2483
2475
2456
2489
2517
2520
2516
2510
2510
2487
2495
2463
2446
2484
2441
2463
2469
2472
2432
2474
2493
2499
2500
2503
2498
2493
2486
2494
2476
2435
2426
2453
2474
2476
2472
2490
2480
2491
2463
2480
2466
2509
2490
2477
2496
2475
2465
2431
2469
2491
2476
2474
2479
2461
2457
2504
2475
2474
2485
2473
2466
2442
2447
2488
2458
2487
2453
2469
2465
2453
2478
2495
2478
2437
2489
2444
2510
2504
2487
2460
2446
2434
2485
2491
2491
2502
2480
2461
2494
2505
2517
2486
2492
2513
2473
2471
2452
2465
2466
2471
2480
2459
2465
2488
2478
2464
2518
2508
2486
2498
2484
2425
2510
2444
2500
2467
2466
2466
2484
2496
2486
2511
2464
2481
2504
2507
2479
2484
2484
2439
2436
2447
2435
2453
2449
2450
2434
2411
2470
2495
2496
2471
2492
2468
2440
2490
2476
2441
2503
2473
2499
2495
2502
2525
2499
2509
2516
2518
2497
2457
2491
2454
2488
2460
2412
2415
2421
2482
2496
2496
2482
2466
2485
2508
2489
2486
2515
2455
2481
2467
2427
2487
2458
2468
2460
2474
2490
2509
2481
2444
2473
2500
2474
2476
2495
2476
2451
2422
2421
2494
2473
2484
2485
2461
2513
2424
2507
2528
2484
2485
2476
2493
2493
2486
2445
2427
2412
2437
2461
2476
2457
2459
2480
2453
2494
2500
2498
2491
2501
2475
2465
2455
2470
2455
2489
2478
2522
2510
2470
2476
2489
2504
2502
2495
2500
2498
2463
2467
2452
2485
2466
2483
2473
2448
2478
2490
2498
2526
2518
2503
2436
2474
2489
2496
2482
2432
2409
2460
2484
2463
2456
2475
2529
2536
2527
2514
2510
2499
2477
2478
2467
2427
2453
2436
2454
2441
2471
2484
2487
2534
2509
2513
2496
2487
2484
2492
2497
2471
2435
2429
2427
2446
2449
2473
2479
2486
2501
2504
2511
2537
2510
2511
2503
2484
2453
2409
2462
2445
2438
2469
2457
2471
2492
2463
2460
2483
2505
2509
2514
2495
2517
2489
2449
2444
2462
2477
2488
2466
2490
2507
2488
2438
2490
2492
2468
2461
2470
2460
2459
2447
2463
2453
2475
2474
2467
2466
2466
2439
2458
2464
2472
2488
2472
2484
2478
2477
2434
2444
2493
2483
2492
2502
2486
2491
2504
2496
2479
2491
2496
2501
2495
2474
2455
2489
2494
2486
2490
2479
2484
2485
2463
2449
2468
2521
2498
2504
2508
2491
2463
2451
2473
2424
2484
2467
2396
2502
2494
2470
2443
2476
2522
2520
2497
2488
2477
2478
2460
2442
2485
2481
2464
2452
2460
2491
2512
2512
2500
2498
2487
2498
2471
2501
2489
2434
2441
2496
2487
2486
2485
2475
2482
2516
2508
2497
2507
2493
2488
2475
2444
2459
2430
2466
2462
2472
2482
2457
2488
2472
2501
2512
2511
2510
2493
2495
2494
2460
2435
2428
2468
2465
2457
2449
2487
2446
2430
2434
2519
2546
2509
2495
2496
2451
2454
2470
2456
2458
2483
2458
2466
2442
2493
2489
2478
2493
2504
2497
2492
2499
2470
2480
2466
2469
2447
2462
2455
2465
2485
2481
2500
2467
2487
2486
2506
2517
2489
2509
2483
2428
2458
2486
2500
2505
2499
2494
2505
2513
2483
2497
2512
2490
2495
2493
2489
2482
2420
2468
2456
2478
2477
2506
2462
2480
2500
2527
2500
2500
2501
2491
2483
2461
2467
2470
2445
2483
2478
2470
2472
2489
2469
2464
2478
2493
2506
2493
2503
2502
2458
2416
2461
2444
2466
2479
2502
2468
2474
2486
2505
2487
2511
2498
2508
2485
2459
2453
2479
2483
2452
2481
2470
2464
2456
2472
2455
2476
2492
2511
2510
2509
2482
2467
2485
2449
2489
2482
2494
2487
2496
2512
2479
2487
2504
2487
2470
2474
2478
2481
2498
2465
2464
2460
2456
2484
2487
2476
2499
2492
2476
2470
2440
2486
2489
2473
2470
2435
2449
2465
2451
2458
2463
2469
2450
2473
2478
2506
2535
2506
2494
2483
2479
2500
2471
2446
2490
2454
2468
2485
2451
2489
2461
2480
2447
2460
2475
2498
2492
2509
2505
2499
2482
2462
2467
2495
2500
2497
2485
2476
2478
2480
2503
2499
2507
2495
2478
2462
2463
2444
2454
2429
2485
2478
2490
2459
2502
2502
2499
2498
2485
2491
2481
2489
2487
2456
2455
2465
2473
2482
2492
2514
2456
2477
2474
2520
2508
2477
2486
2475
2489
2467
2438
2429
2450
2464
2473
2506
2504
2463
2471
2484
2500
2496
2493
2499
2453
2446
2445
2466
2471
2489
2477
2473
2475
2478
2482
2508
2565
2535
2523
2524
2520
2493
2552
2469
2461
2480
2462
2480
2484
2485
2465
2508
2510
2524
2520
2481
2491
2478
2482
2478
2476
2474
2453
2445
2456
2480
2470
2464
2496
2520
2534
2510
2509
2521
2505
2487
2487
2446
2432
2417
2467
2465
2455
2444
2472
2426
2453
2482
2511
2499
2513
2513
2489
2472
2464
2459
2492
2478
2477
2468
2466
2481
2497
2530
2538
2477
2506
2487
2464
2506
2486
2445
2420
2467
2492
2501
2498
2503
2461
2465
2442
2502
2494
2486
2479
2470
2466
2484
2439
2431
2455
2472
2483
2490
2496
2446
2498
2492
2501
2498
2511
2509
2494
2484
2464
2481
2487
2494
2476
2496
2489
2462
2501
2504
2535
2505
2455
2487
2488
2473
2487
2465
2478
2394
2413
2477
2463
2491
2481
2482
2460
2440
2455
2500
2473
2457
2445
2435
2436
2489
2531
2516
2496
2505
2498
2527
2492
2528
2504
2514
2522
2516
2466
2485
2475
2475
2425
2462
2460
2487
2484
2453
2468
2467
2488
2439
2505
2502
2501
2509
2477
2485
2470
2427
2455
2485
2480
2488
2476
2458
2498
2522
2531
2508
2503
2507
2472
2491
2467
2456
2463
2478
2458
2466
2431
2461
2472
2454
2453
2456
2478
2515
2520
2564
2521
2482
2465
2449
2448
2493
2492
2513
2490
2481
2465
2455
2510
2500
2528
2488
2484
2494
2464
2454
2453
2453
2484
2469
2470
2495
2467
2476
2497
2491
2496
2497
2551
2469
2458
2461
2497
2438
2462
2485
2473
2492
2526
2487
2538
2494
2506
2471
2509
2503
2489
2482
2454
2495
2437
2486
2466
2492
2437
2412
2485
2487
2454
2456
2512
2487
2491
2509
2501
2452
2431
2473
2441
2460
2451
2445
2487
2502
2550
2509
2514
2502
2503
2512
2499
2467
2420
2453
2481
2481
2493
2492
2500
2469
2475
2434
2487
2503
2489
2479
2486
2462
2428
2402
2462
2478
2478
2483
2493
2466
2512
2507
2535
2523
2495
2506
2492
2472
2500
2440
2472
2461
2459
2476
2468
2483
2490
2484
2519
2493
2499
2493
2482
2478
2477
2439
2423
2421
2395
2420
2432
2508
2471
2475
2497
2547
2531
2493
2507
2514
2500
2478
2462
2447
2461
2469
2487
2490
2471
2467
2497
2520
2501
2478
2499
2503
2498
2434
2476
2461
2409
2467
2469
2484
2490
2497
2482
2466
2520
2513
2518
2493
2502
2501
2509
2496
2464
2403
2427
2495
2479
2484
2491
2465
2470
2525
2530
2498
2489
2486
2486
2457
2460
2463
2500
2476
2441
2476
2481
2494
2477
2473
2515
2493
2491
2495
2466
2516
2497
2490
2394
2429
2459
2472
2490
2584
2488
2435
2478
2530
2512
2516
2512
2510
2503
2478
2484
2467
2437
2473
2466
2486
2510
2490
2492
2508
2468
2481
2481
2492
2446
2420
2435
2441
2445
2470
2466
2491
2496
2415
2478
2490
2480
2520
2541
2511
2509
2488
2494
2465
2485
2478
2461
2476
2477
2487
2482
2483
2508
2497
2493
2526
2517
2504
2491
2461
2462
2477
2477
2461
2459
2456
2463
2418
2466
2511
2536
2542
2561
2560
2525
2508
2524
2499
2474
2425
2478
2447
2486
2481
2467
2464
2463
2503
2509
2490
2476
2487
2481
2468
2487
2465
2482
2470
2492
2485
2474
2475
2490
2514
2506
2505
2501
2505
2505
2498
2447
2461
2461
2475
2466
2483
2479
2468
2471
2496
2484
2512
2492
2478
2489
2491
2494
2475
2458
2436
2433
2468
2465
2468
2471
2488
2510
2497
2442
2488
2494
2524
2514
2507
2481
2480
2441
2405
2462
2478
2472
2470
2436
2499
2481
2534
2512
2509
2508
2499
2444
2467
2470
2475
2454
2447
2479
2489
2501
2479
2496
2459
2503
2510
2506
2492
2455
2495
2476
2476
2463
2493
2476
2471
2508
2468
2509
2521
2530
2457
2484
2471
2489
2499
2455
2474
2474
2483
2479
2487
2491
2478
2492
2486
2490
2447
2508
2503
2511
2486
2456
2442
2437
2429
2440
2452
2442
2492
2502
2466
2465
2489
2511
2508
2493
2489
2482
2498
2494
2491
2491
2445
2525
2495
2455
2489
2497
2500
2481
2501
2455
2472
2502
2483
2447
2458
2454
2475
2498
2465
2479
2480
2508
2502
2492
2520
2533
2488
2506
2520
2490
2491
2484
2489
2465
2458
2475
2475
2518
2509
2472
2502
2526
2456
2489
2506
2486
2471
2453
2487
2446
2485
2444
2468
2481
2470
2475
2451
2476
2502
2491
2507
2529
2519
2510
2485
2455
2455
2490
2481
2483
2492
2489
2479
2456
2507
2525
2522
2511
2502
2496
2489
2498
2455
2416
2452
2449
2476
2482
2484
2488
2548
2499
2483
2502
2476
2475
2458
2465
2480
2503
2462
2507
2469
2483
2500
2502
2495
2481
2514
2490
2495
2546
2509
2454
2479
2455
2423
2394
2416
2449
2449
2476
2515
2459
2481
2452
2499
2481
2516
2503
2496
2485
2506
2469
2420
2467
2444
2481
2486
2480
2508
2496
2526
2508
2500
2505
2480
2507
2507
2490
2484
2439
2490
2446
2490
2496
2482
2459
2504
2511
2502
2481
2504
2509
2474
2490
2484
2467
2484
2475
2455
2489
2490
2481
2487
2468
2466
2480
2497
2476
2496
2448
2455
2454
2475
2481
2447
2464
2475
2424
2482
2467
2490
2469
2491
2500
2498
2501
2498
2501
2471
2418
2467
2475
2484
2487
2490
2454
2490
2503
2537
2504
2506
2498
2476
2456
2492
2461
2468
2487
2484
2478
2501
2503
2501
2488
2487
2475
2510
2513
2513
2513
2508
2464
2457
2476
2471
2453
2484
2478
2479
2445
2488
2537
2547
2506
2499
2479
2486
2474
2468
2469
2464
2452
2471
2475
2525
2472
2495
2494
2500
2495
2483
2497
2502
2476
2469
2435
2458
2466
2478
2476
2477
2492
2472
2493
2523
2493
2479
2505
2491
2485
2471
2496
2464
2452
2428
2484
2487
2499
2496
2461
2496
2469
2509
2505
2511
2495
2493
2456
2453
2472
2447
2457
2464
2489
2472
2496
2486
2483
2504
2475
2509
2519
2494
2496
2469
2458
2487
2453
2426
2467
2466
2460
2479
2502
2500
2521
2471
2493
2494
2472
2477
2456
2452
2401
2469
2485
2509
2489
2514
2475
2468
2496
2494
2511
2514
2485
2530
2505
2491
2475
2426
2440
2456
2509
2506
2498
2523
2519
2474
2525
2508
2508
2513
2501
2471
2475
2431
2463
2443
2449
2473
2478
2488
2459
2476
2487
2522
2483
2518
2503
2506
2484
2483
2467
2427
2449
2481
2476
2478
2485
2478
2502
2520
2518
2476
2488
2481
2456
2449
2456
2448
2489
2429
2464
2482
2463
2391
2483
2533
2502
2500
2498
2500
2481
2508
2477
2480
2447
2460
2464
2493
2512
2489
2516
2509
2494
2511
2505
2497
2488
2485
2480
2482
2469
2404
2425
2480
2479
2480
2485
2508
2526
2525
2478
2479
2501
2510
2503
2476
2473
2461
2478
2465
2451
2448
2473
2499
2484
2500
2526
2493
2528
2478
2502
2489
2503
2458
2462
2473
2457
2490
2473
2473
2508
2485
2473
2519
2508
2507
2503
2476
2461
2466
2498
2490
2437
2460
2466
2490
2482
2502
2492
2475
2503
2515
2504
2497
2491
2481
2464
2462
2464
2479
2477
2475
2474
2472
2472
2463
2478
2503
2510
2511
2481
2496
2486
2478
2483
2453
2449
2455
2475
2465
2489
2482
2511
2510
2470
2488
2489
2488
2476
2454
2488
2488
2500
2477
2501
2505
2492
2498
2500
2485
2487
2513
2531
2480
2479
2481
2467
2485
2474
2434
2459
2433
2477
2487
2483
2457
2495
2504
2535
2499
2495
2496
2485
2501
2496
2509
2493
2472
2482
2487
2529
2465
2486
2468
2489
2487
2474
2495
2490
2471
2467
2457
2433
2467
2446
2474
2490
2480
2441
2497
2457
2469
2451
2502
2519
2492
2514
2496
2469
2428
2397
2393
2462
2481
2497
2522
2486
2458
2481
2527
2518
2516
2502
2483
2480
2466
2464
2487
2484
2493
2466
2489
2493
2489
2512
2485
2482
2481
2505
2488
2470
2446
2454
2451
2448
2462
2477
2484
2459
2491
2488
2492
2466
2528
2508
2504
2491
2483
2463
2451
2470
2481
2480
2475
2497
2456
2486
2481
2471
2491
2478
2479
2457
2478
2477
2453
2471
2501
2495
2483
2498
2501
2506
2496
2494
2498
2517
2520
2506
2496
2515
2499
2462
2477
2465
2454
2479
2480
2483
2479
2504
2479
2460
2495
2485
2491
2505
2475
2487
2493
2449
2454
2473
2457
2479
2486
2514
2482
2507
2472
2502
2511
2511
2485
2474
2455
2456
2467
2440
2466
2471
2496
2448
2462
2465
2520
2531
2523
2509
2468
2523
2495
2489
2471
2435
2440
2452
2484
2498
2476
2448
2459
2476
2514
2476
2503
2493
2492
2489
2467
2430
2443
2470
2472
2480
2475
2480
2472
2473
2463
2458
2491
2513
2498
2481
2488
2471
2422
2438
2449
2482
2475
2467
2459
2459
2478
2485
2489
2502
2499
2502
2484
2491
2481
2486
2468
2476
2481
2491
2488
2508
2509
2487
2490
2493
2509
2503
2488
2505
2395
2449
2431
2478
2469
2474
2482
2520
2477
2503
2477
2482
2503
2513
2522
2497
2485
2456
2442
2427
2500
2466
2465
2471
2447
2464
2523
2474
2519
2480
2480
2491
2482
2522
2479
2438
2453
2441
2477
2473
2469
2470
2452
2471
2488
2500
2503
2459
2486
2480
2445
2422
2457
2509
2464
2472
2490
2491
2490
2489
2500
2527
2532
2525
2512
2507
2474
2481
2491
2431
2433
2459
2464
2502
2465
2420
2513
2505
2517
2498
2498
2501
2467
2445
2465
2479
2438
2471
2475
2492
2492
2492
2504
2488
2454
2489
2516
2493
2494
2481
2442
2455
2458
2439
2473
2466
2482
2479
2490
2490
2483
2506
2547
2518
2496
2505
2493
2500
2488
2447
2425
2457
2492
2473
2479
2502
2493
2471
2483
2512
2507
2507
2472
2473
2449
2432
2410
2420
2431
2441
2477
2488
2485
2459
2462
2509
2502
2542
2511
2513
2543
2496
2487
2486
2441
2474
2486
2477
2459
2462
2445
2443
2424
2520
2519
2517
2522
2522
2482
2469
2440
2487
2476
2469
2483
2487
2467
2467
2504
2472
2484
2496
2513
2525
2486
2500
2484
2498
2436
2458
2480
2500
2490
2495
2497
2490
2483
2495
2502
2526
2490
2495
2463
2437
2437
2467
2475
2484
2485
2450
2461
2500
2521
2496
2512
2505
2493
2493
2472
2487
2489
2462
2481
2484
2474
2470
2487
2467
2457
2454
2504
2462
2480
2497
2488
2462
2431
2469
2485
2471
2483
2474
2501
2516
2523
2506
2483
2470
2492
2515
2482
2503
2467
2453
2428
2450
2460
2460
2469
2445
2441
2476
2487
2498
2497
2491
2500
2520
2498
2497
2467
2507
2506
2480
2487
2498
2500
2501
2476
2503
2488
2500
2499
2503
2498
2482
2471
2480
2479
2477
2465
2475
2460
2491
2460
2447
2504
2518
2490
2504
2504
2498
2479
2484
2481
2478
2491
2432
2477
2479
2486
2491
2489
2522
2496
2499
2507
2484
2496
2482
2479
2486
2461
2461
2471
2487
2481
2478
2503
2498
2453
2485
2506
2506
2496
2515
2502
2473
2420
2452
2475
2480
2483
2470
2469
2455
2458
2486
2512
2511
2501
2525
2478
2481
2476
2523
2480
2458
2470
2477
2479
2466
2483
2483
2507
2474
2467
2450
2459
2469
2483
2426
2498
2479
2470
2500
2485
2484
2539
2522
2510
2525
2498
2481
2473
2484
2476
2455
2469
2464
2466
2479
2459
2503
2503
2500
2511
2508
2481
2491
2500
2535
2498
2493
2489
2466
2433
2474
2486
2487
2485
2506
2457
2481
2495
2504
2516
2508
2473
2443
2463
2475
2436
2423
2458
2462
2479
2491
2491
2496
2509
2471
2470
2486
2496
2490
2488
2449
2468
2470
2445
2430
2456
2460
2464
2458
2459
2499
2529
2488
2519
2521
2503
2500
2486
2461
2453
2461
2478
2473
2483
2486
2489
2492
2474
2491
2521
2503
2506
2503
2497
2499
2471
2465
2457
2468
2481
2480
2481
2473
2499
2526
2538
2490
2433
2455
2513
2510
2494
2482
2428
2438
2499
2484
2472
2430
2464
2486
2517
2510
2509
2505
2500
2505
2508
2489
2436
2445
2441
2490
2501
2477
2489
2470
2481
2484
2510
2492
2496
2498
2477
2478
2449
2442
2465
2460
2477
2476
2472
2465
2475
2494
2496
2498
2511
2497
2495
2469
2477
2478
2470
2523
2471
2482
2478
2466
2443
2476
2476
2537
2506
2526
2514
2503
2509
2450
2467
2443
2457
2478
2491
2489
2498
2470
2469
2478
2486
2484
2506
2497
2499
2471
2471
2456
2475
2456
2498
2476
2484
2459
2474
2510
2520
2504
2503
2504
2487
2481
2482
2476
2465
2442
2491
2484
2473
2490
2483
2473
2449
2484
2468
2465
2492
2498
2510
2493
2481
2469
2501
2475
2480
2502
2496
2506
2471
2517
2478
2501
2513
2513
2508
2502
2502
2468
2414
2429
2493
2487
2493
2497
2461
2503
2519
2546
2488
2507
2504
2487
2483
2489
2495
2484
2494
2501
2468
2484
2454
2490
2497
2534
2508
2535
2491
2480
2480
2496
2471
2463
2406
2421
2470
2483
2496
2487
2470
2475
2543
2530
2503
2517
2492
2464
2426
2478
2455
2513
2486
2490
2483
2474
2507
2505
2501
2516
2506
2503
2496
2454
2481
2500
2473
2439
2455
2470
2494
2484
2490
2500
2494
2525
2493
2513
2480
2493
2478
2450
2422
2496
2553
2498
2479
2492
2489
2490
2490
2475
2500
2527
2505
2507
2497
2481
2483
2466
2450
2473
2431
2464
2457
2467
2465
2458
2441
2435
2493
2483
2481
2514
2518
2510
2495
2460
2468
2453
2471
2478
2483
2459
2467
2499
2528
2527
2521
2504
2494
2483
2485
2483
2480
2484
2492
2484
2482
2475
2477
2455
2454
2516
2526
2513
2503
2481
2493
2499
2493
2448
2460
2483
2467
2476
2474
2478
2495
2493
2534
2516
2507
2514
2495
2478
2482
2462
2496
2481
2471
2476
2478
2497
2452
2474
2503
2544
2516
2507
2506
2507
2504
2496
2489
2447
2442
2495
2485
2486
2505
2464
2502
2491
2497
2484
2516
2521
2504
2502
2458
2453
2463
2480
2461
2474
2477
2441
2447
2457
2485
2509
2511
2506
2503
2513
2470
2451
2458
2480
2489
2506
2500
2517
2460
2517
2519
2562
2554
2504
2510
2524
2463
2488
2471
2478
2478
2472
2479
2463
2472
2486
2475
2505
2521
2485
2491
2510
2505
2495
2491
2463
2407
2433
2470
2472
2476
2477
2490
2477
2498
2499
2529
2535
2508
2508
2502
2465
2455
2427
2481
2456
2456
2472
2454
2450
2488
2503
2512
2502
2497
2496
2514
2472
2516
2486
2446
2452
2470
2488
2497
2494
2502
2502
2493
2449
2466
2490
2482
2457
2476
2461
2425
2473
2485
2492
2475
2460
2481
2490
2514
2552
2540
2507
2514
2486
2504
2494
2488
2474
2467
2463
2474
2477
2516
2485
2448
2474
2481
2493
2477
2499
2500
2480
2463
2483
2399
2456
2470
2489
2485
2491
2474
2474
2515
2496
2519
2496
2481
2482
2484
2496
2491
2455
2432
2481
2479
2508
2487
2496
2470
2487
2499
2546
2492
2495
2484
2483
2506
2450
2417
2422
2469
2471
2480
2495
2466
2440
2474
2464
2483
2533
2532
2504
2513
2512
2459
2426
2487
2480
2480
2494
2489
2456
2484
2519
2477
2493
2516
2501
2490
2473
2460
2449
2454
2479
2474
2489
2486
2488
2502
2483
2482
2502
2500
2487
2483
2482
2494
2457
2489
2485
2468
2445
2474
2485
2497
2430
2488
2486
2478
2496
2479
2493
2462
2478
2482
2500
2441
2503
2506
2498
2475
2514
2503
2499
2505
2496
2518
2511
2468
2497
2460
2472
2468
2497
2489
2487
2490
2524
2467
2484
2473
2482
2492
2501
2500
2495
2498
2489
2467
2438
2453
2471
2487
2487
2500
2461
2481
2459
2474
2491
2502
2507
2491
2492
2479
2505
2476
2461
2495
2490
2490
2498
2479
2495
2474
2531
2454
2486
2502
2486
2499
2471
2415
2414
2425
2489
2472
2481
2499
2476
2468
2493
2538
2513
2513
2493
2539
2465
2504
2498
2511
2470
2509
2479
2484
2489
2462
2487
2461
2496
2513
2501
2493
2499
2462
2462
2461
2480
2482
2480
2480
2486
2462
2522
2554
2540
2498
2509
2498
2496
2460
2470
2481
2465
2463
2473
2494
2489
2495
2478
2470
2407
2521
2482
2486
2478
2473
2457
2490
2497
2508
2468
2457
2497
2497
2508
2494
2478
2467
2473
2489
2493
2483
2476
2455
2469
2461
2483
2445
2499
2476
2491
2469
2484
2512
2546
2514
2497
2502
2506
2485
2463
2485
2490
2483
2469
2482
2474
2491
2469
2488
2518
2475
2500
2509
2514
2502
2516
2483
2458
2428
2422
2456
2472
2486
2483
2484
2487
2529
2535
2499
2514
2507
2491
2447
2505
2495
2455
2453
2484
2489
2481
2499
2473
2437
2464
2464
2512
2505
2502
2492
2483
2465
2454
2456
2465
2490
2506
2482
2452
2491
2506
2507
2539
2503
2538
2504
2482
2504
2471
2438
2423
2424
2470
2488
2499
2518
2487
2493
2488
2538
2511
2514
2520
2491
2493
2466
2417
2423
2483
2479
2476
2491
2476
2493
2505
2495
2512
2513
2510
2523
2514
2468
2455
2455
2478
2460
2475
2462
2481
2470
2438
2487
2513
2501
2507
2501
2504
2474
2471
2508
2489
2488
2475
2488
2514
2488
2498
2488
2495
2524
2503
2508
2494
2495
2487
2499
2498
2463
2487
2489
2480
2494
2474
2470
2496
2524
2513
2504
2495
2488
2480
2469
2449
2416
2481
2438
2396
2483
2503
2499
2529
2498
2513
2503
2494
2501
2513
2509
2463
2501
2488
2476
2456
2481
2486
2527
2515
2517
2509
2479
2521
2513
2513
2493
2502
2477
2458
2462
2502
2442
2487
2489
2479
2491
2498
2512
2493
2508
2531
2507
2506
2500
2495
2457
2413
2413
2477
2486
2495
2480
2471
2494
2519
2525
2485
2526
2506
2501
2508
2519
2484
2460
2443
2460
2477
2497
2503
2495
2497
2534
2496
2504
2507
2501
2514
2467
2457
2443
2486
2457
2469
2480
2446
2485
2489
2499
2457
2467
2503
2463
2501
2491
2495
2495
2462
2506
2508
2491
2495
2500
2454
2472
2505
2561
2518
2529
2518
2495
2498
2490
2468
2524
2457
2459
2459
2464
2478
2468
2472
2487
2461
2488
2507
2508
2509
2511
2515
2479
2474
2453
2502
2481
2495
2475
2471
2502
2512
2552
2498
2492
2501
2493
2483
2492
2465
2418
2416
2446
2477
2474
2499
2465
2465
2505
2536
2475
2467
2484
2509
2485
2473
2478
2476
2475
2494
2495
2497
2496
2484
2495
2497
2491
2503
2515
2514
2507
2517
2492
2468
2448
2467
2489
2499
2491
2499
2490
2531
2563
2527
2516
2507
2509
2502
2510
2485
2429
2509
2466
2461
2481
2490
2485
2511
2510
2454
2480
2490
2499
2492
2510
2502
2472
2439
2496
2477
2477
2491
2495
2483
2500
2507
2501
2486
2510
2462
2495
2510
2475
2464
2423
2422
2444
2478
2475
2483
2466
2500
2502
2529
2483
2508
2516
2508
2477
2469
2470
2466
2471
2489
2489
2503
2502
2491
2505
2530
2477
2495
2512
2495
2498
2499
2476
2434
2411
2452
2488
2487
2500
2506
2538
2516
2509
2512
2520
2493
2490
2490
2458
2466
2412
2474
2463
2459
2484
2489
2490
2474
2464
2538
2531
2515
2507
2496
2477
2462
2460
2442
2401
2481
2467
2499
2507
2501
2467
2479
2493
2530
2505
2515
2524
2542
2481
2475
2465
2488
2479
2487
2495
2478
2471
2511
2536
2526
2487
2525
2491
2500
2480
2450
2486
2452
2456
2446
2497
2475
2514
2522
2472
2473
2452
2518
2502
2505
2490
2481
2460
2426
2455
2459
2467
2500
2485
2452
2484
2481
2535
2544
2501
2504
2513
2484
2488
2503
2498
2483
2491
2502
2473
2468
2469
2485
2520
2512
2516
2502
2508
2506
2512
2509
2477
2435
2477
2496
2515
2491
2499
2471
2469
2501
2547
2514
2499
2524
2500
2492
2500
2481
2475
2454
2435
2469
2454
2482
2495
2504
2525
2496
2522
2506
2517
2488
2467
2482
2480
2452
2460
2453
2492
2488
2520
2513
2484
2506
2522
2514
2515
2502
2529
2476
2452
2437
2463
2453
2471
2488
2460
2433
2457
2480
2497
2513
2507
2534
2516
2516
2475
2496
2505
2495
2466
2523
2504
2502
2506
2502
2495
2533
2518
2493
2504
2494
2513
2488
2477
2422
2448
2432
2464
2473
2504
2480
2486
2522
2535
2502
2505
2526
2527
2512
2481
2498
2418
2442
2468
2470
2487
2516
2538
2485
2509
2512
2540
2524
2544
2496
2502
2462
2465
2467
2466
2464
2487
2487
2504
2506
2512
2487
2548
2513
2516
2517
2517
2476
2445
2473
2471
2451
2461
2475
2468
2466
2469
2474
2495
2507
2520
2509
2519
2517
2508
2469
2449
2431
2450
2475
2478
2492
2490
2490
2485
2479
2507
2506
2503
2509
2502
2487
2485
2471
2500
2501
2496
2499
2491
2487
2487
2510
2555
2543
2512
2524
2504
2541
2515
2491
2447
2426
2441
2480
2484
2497
2490
2445
2489
2499
2546
2528
2556
2512
2535
2506
2478
2434
2430
2470
2478
2460
2467
2468
2464
2480
2521
2477
2482
2481
2472
2448
2478
2477
2522
2485
2492
2493
2498
2489
2505
2516
2462
2491
2490
2507
2543
2515
2497
2457
2435
2468
2458
2498
2509
2508
2533
2488
2538
2488
2499
2536
2532
2514
2484
2511
2477
2477
2476
2488
2486
2487
2475
2497
2514
2510
2538
2501
2524
2516
2504
2507
2489
2460
2486
2484
2491
2493
2489
2475
2467
2504
2510
2537
2518
2521
2525
2531
2506
2489
2454
2436
2441
2472
2485
2483
2495
2477
2466
2489
2513
2488
2504
2481
2481
2472
2450
2460
2424
2439
2517
2509
2520
2513
2500
2521
2524
2526
2530
2517
2528
2519
2530
2462
2489
2442
2488
2498
2482
2495
2515
2471
2509
2532
2550
2522
2524
2509
2504
2503
2507
2467
2437
2487
2504
2504
2513
2534
2479
2494
2527
2502
2539
2511
2513
2448
2465
2448
2475
2463
2488
2463
2483
2478
2479
2488
2509
2537
2499
2509
2525
2493
2518
2496
2483
2454
2380
2472
2475
2492
2512
2509
2533
2516
2564
2525
2535
2529
2485
2504
2516
2501
2455
2436
2464
2479
2515
2530
2499
2507
2489
2493
2506
2508
2507
2493
2540
2471
2461
2465
2474
2486
2493
2501
2502
2487
2508
2546
2545
2538
2544
2520
2521
2496
2488
2469
2432
2448
2476
2472
2481
2508
2482
2469
2506
2495
2491
2490
2505
2459
2490
2487
2507
2459
2454
2479
2505
2485
2499
2526
2526
2557
2572
2535
2515
2506
2501
2482
2488
2425
2421
2471
2493
2499
2499
2525
2536
2530
2475
2502
2520
2512
2508
2498
2484
2471
2440
2434
2508
2477
2504
2501
2490
2464
2485
2543
2522
2508
2488
2492
2482
2482
2456
2451
2484
2507
2489
2492
2482
2474
2502
2497
2530
2513
2525
2520
2488
2487
2484
2482
2452
2457
2505
2503
2510
2479
2502
2531
2512
2516
2523
2503
2495
2439
2485
2452
2495
2529
2479
2477
2498
2491
2486
2496
2520
2538
2514
2517
2497
2502
2482
2493
2485
2427
2438
2472
2485
2497
2509
2531
2512
2516
2500
2520
2522
2506
2497
2487
2462
2467
2482
2476
2464
2476
2490
2501
2517
2532
2533
2521
2519
2492
2490
2521
2501
2502
2494
2489
2433
2459
2472
2486
2484
2469
2500
2480
2498
2519
2527
2516
2511
2494
2473
2453
2464
2476
2473
2492
2519
2495
2482
2511
2554
2537
2526
2520
2505
2490
2498
2474
2461
2499
2470
2457
2492
2501
2492
2521
2498
2452
2556
2525
2521
2462
2480
2454
2477
2492
2485
2463
2474
2475
2480
2506
2488
2482
2517
2517
2528
2531
2523
2515
2520
2502
2429
2446
2467
2499
2487
2483
2520
2509
2521
2553
2527
2531
2518
2521
2507
2507
2472
2490
2487
2475
2486
2480
2486
2488
2496
2525
2505
2531
2523
2504
2489
2472
2429
2426
2423
2490
2486
2491
2481
2482
2462
2504
2524
2528
2508
2506
2500
2479
2447
2463
2448
2487
2487
2479
2492
2578
2512
2507
2513
2580
2558
2526
2520
2471
2486
2464
2463
2503
2450
2480
2492
2479
2505
2483
2503
2494
2528
2529
2527
2519
2506
2495
2465
2467
2461
2463
2464
2499
2494
2504
2505
2534
2508
2546
2529
2529
2513
2500
2499
2471
2469
2492
2477
2444
2444
2479
2504
2480
2488
2503
2472
2472
2521
2511
2511
2493
2478
2435
2450
2443
2471
2493
2480
2478
2480
2501
2542
2526
2522
2510
2497
2485
2496
2475
2457
2454
2448
2481
2483
2491
2468
2474
2507
2549
2541
2512
2545
2515
2490
2478
2498
2444
2494
2479
2501
2490
2489
2510
2488
2491
2466
2519
2501
2511
2477
2471
2426
2400
2416
2432
2434
2490
2498
2489
2495
2493
2534
2540
2538
2542
2550
2536
2533
2501
2477
2428
2443
2480
2484
2499
2502
2482
2469
2499
2544
2534
2527
2519
2468
2482
2494
2465
2485
2471
2491
2491
2489
2474
2488
2499
2504
2465
2518
2483
2492
2518
2492
2496
2457
2464
2472
2506
2501
2498
2501
2478
2492
2482
2520
2513
2492
2497
2497
2440
2462
2419
2445
2454
2493
2483
2496
2501
2490
2471
2493
2543
2531
2513
2508
2492
2481
2503
2511
2479
2472
2499
2482
2502
2499
2508
2523
2493
2498
2521
2525
2505
2518
2517
2483
2446
2443
2465
2488
2471
2490
2534
2495
2487
2475
2519
2522
2503
2482
2456
2434
2436
2403
2490
2477
2490
2500
2533
2500
2491
2514
2573
2537
2539
2482
2514
2489
2459
2474
2460
2487
2467
2462
2471
2526
2506
2469
2454
2519
2528
2527
2526
2518
2510
2479
2490
2460
2469
2470
2485
2494
2491
2528
2525
2551
2556
2533
2509
2523
2495
2487
2479
2492
2479
2461
2488
2479
2501
2505
2495
2514
2526
2529
2535
2526
2520
2501
2478
2449
2453
2401
2433
2474
2501
2507
2504
2512
2538
2516
2526
2536
2537
2549
2516
2491
2474
2430
2440
2479
2482
2484
2486
2477
2486
2506
2518
2523
2516
2490
2523
2475
2471
2525
2493
2477
2514
2512
2515
2475
2527
2508
2542
2524
2551
2530
2525
2514
2484
2474
2486
2446
2464
2471
2489
2489
2502
2458
2511
2501
2494
2541
2507
2509
2518
2486
2477
2456
2475
2498
2469
2487
2491
2461
2495
2512
2536
2485
2522
2512
2514
2476
2469
2476
2476
2473
2513
2517
2499
2493
2465
2523
2521
2523
2529
2532
2508
2512
2489
2468
2453
2407
2428
2447
2466
2468
2469
2485
2469
2490
2527
2520
2527
2518
2515
2535
2484
2468
2470
2488
2490
2505
2521
2490
2480
2497
2545
2552
2504
2475
2477
2444
2463
2445
2472
2486
2477
2489
2491
2501
2467
2511
2541
2531
2591
2553
2535
2544
2497
2480
2487
2469
2490
2465
2480
2448
2494
2489
2478
2527
2496
2534
2499
2513
2496
2479
2475
2466
2467
2451
2508
2521
2506
2507
2520
2541
2548
2474
2494
2497
2528
2510
2480
2473
2470
2443
2462
2466
2447
2489
2468
2428
2445
2472
2520
2528
2512
2511
2504
2472
2462
2499
2508
2485
2491
2510
2504
2497
2514
2513
2493
2484
2515
2512
2513
2514
2480
2491
2468
2448
2464
2464
2503
2470
2547
2492
2492
2503
2482
2518
2504
2484
2505
2484
2448
2437
2479
2487
2502
2481
2515
2499
2492
2520
2522
2517
2520
2507
2529
2531
2499
2488
2474
2484
2481
2460
2478
2491
2487
2467
2482
2520
2513
2512
2506
2502
2468
2490
2496
2491
2465
2513
2474
2486
2504
2480
2504
2507
2502
2533
2505
2534
2530
2515
2509
2476
2423
2459
2489
2490
2485
2488
2465
2491
2535
2545
2537
2526
2521
2531
2495
2485
2477
2449
2460
2481
2470
2468
2510
2489
2495
2524
2501
2529
2515
2500
2473
2457
2471
2464
2481
2468
2497
2499
2491
2488
2493
2547
2562
2543
2525
2523
2515
2503
2522
2469
2452
2428
2440
2481
2484
2487
2507
2492
2463
2455
2519
2556
2513
2511
2492
2470
2475
2494
2459
2535
2494
2509
2505
2497
2491
2543
2524
2546
2542
2510
2488
2530
2506
2476
2447
2426
2467
2492
2493
2484
2507
2512
2490
2483
2540
2540
2508
2469
2497
2483
2520
2476
2483
2486
2491
2496
2483
2505
2484
2531
2545
2514
2517
2495
2481
2484
2487
2466
2448
2471
2486
2495
2496
2500
2499
2481
2535
2566
2524
2536
2507
2468
2465
2484
2450
2455
2423
2456
2485
2501
2523
2513
2507
2497
2530
2515
2521
2525
2482
2491
2472
2455
2442
2463
2491
2514
2512
2536
2484
2520
2497
2516
2525
2526
2522
2512
2473
2473
2455
2465
2488
2485
2491
2488
2524
2527
2463
2497
2511
2540
2535
2526
2483
2464
2492
2469
2452
2457
2492
2486
2479
2529
2521
2531
2514
2527
2516
2522
2522
2520
2490
2455
2436
2489
2510
2490
2497
2475
2481
2500
2561
2560
2550
2510
2513
2480
2512
2495
2451
2438
2454
2498
2494
2496
2505
2488
2467
2501
2547
2532
2527
2502
2480
2477
2460
2430
2488
2467
2474
2515
2472
2555
2506
2512
2527
2532
2515
2508
2539
2505
2471
2472
2482
2499
2502
2473
2496
2518
2489
2503
2520
2534
2545
2532
2522
2492
2514
2514
2498
2468
2433
2409
2496
2497
2509
2511
2502
2510
2511
2554
2538
2524
2526
2514
2470
2458
2476
2459
2469
2483
2496
2502
2507
2525
2530
2498
2504
2571
2526
2504
2516
2477
2446
2426
2444
2486
2469
2536
2514
2542
2480
2499
2478
2465
2530
2533
2547
2527
2498
2493
2495
2503
2493
2488
2502
2531
2468
2474
2497
2529
2515
2525
2527
2510
2493
2488
2484
2490
2487
2480
2483
2488
2500
2502
2482
2521
2529
2537
2527
2534
2528
2533
2472
2484
2462
2486
2496
2503
2518
2477
2525
2494
2531
2507
2548
2525
2522
2477
2456
2466
2483
2477
2485
2490
2515
2467
2489
2503
2562
2555
2487
2536
2518
2510
2521
2483
2443
2431
2468
2495
2486
2488
2495
2492
2497
2506
2549
2533
2520
2557
2487
2470
2474
2455
2456
2437
2486
2490
2499
2485
2529
2497
2511
2526
2540
2529
2513
2522
2491
2471
2422
2473
2472
2515
2513
2497
2514
2476
2513
2491
2537
2527
2538
2527
2539
2499
2455
2462
2515
2484
2487
2486
2485
2462
2495
2507
2542
2551
2506
2515
2512
2489
2497
2525
2495
2464
2487
2505
2504
2524
2515
2518
2508
2529
2541
2537
2529
2514
2478
2477
2463
2478
2478
2484
2491
2527
2510
2508
2533
2564
2553
2508
2515
2519
2500
2521
2504
2462
2449
2476
2489
2503
2497
2500
2470
2459
2489
2553
2538
2517
2515
2522
2499
2484
2438
2488
2443
2474
2484
2499
2475
2498
2539
2526
2539
2527
2529
2529
2509
2478
2476
2468
2465
2475
2493
2497
2502
2478
2506
2522
2490
2481
2522
2482
2505
2497
2487
2465
2468
2475
2521
2483
2502
2508
2485
2485
2503
2548
2571
2546
2534
2518
2515
2483
2491
2497
2453
2486
2489
2505
2483
2488
2504
2543
2555
2541
2526
2522
2496
2525
2491
2476
2497
2479
2475
2511
2493
2520
2532
2498
2533
2524
2516
2516
2496
2494
2482
2448
2488
2453
2439
2479
2470
2506
2519
2495
2471
2455
2537
2527
2516
2526
2532
2519
2466
2445
2488
2499
2513
2512
2515
2501
2550
2526
2542
2539
2522
2513
2528
2500
2505
2495
2478
2492
2504
2475
2443
2495
2535
2527
2535
2523
2513
2516
2534
2532
2511
2480
2468
2461
2507
2491
2483
2505
2467
2494
2491
2520
2502
2479
2478
2474
2498
2481
2471
2486
2502
2474
2499
2493
2460
2486
2505
2541
2496
2538
2518
2525
2512
2504
2475
2466
2452
2430
2498
2500
2479
2508
2509
2474
2560
2577
2556
2541
2548
2533
2493
2504
2540
2483
2513
2496
2514
2505
2510
2526
2491
2532
2545
2534
2528
2524
2514
2493
2483
2457
2490
2518
2507
2488
2493
2488
2503
2492
2518
2557
2534
2542
2512
2514
2544
2514
2442
2443
2477
2473
2461
2571
2494
2486
2503
2495
2570
2503
2554
2567
2512
2534
2496
2477
2444
2464
2488
2495
2502
2497
2482
2517
2582
2569
2521
2540
2517
2522
2506
2478
2497
2459
2483
2485
2524
2508
2520
2513
2507
2502
2521
2514
2521
2521
2484
2482
2500
2465
2515
2480
2479
2492
2501
2491
2511
2542
2532
2526
2544
2535
2521
2503
2502
2468
2438
2433
2507
2494
2511
2510
2525
2510
2511
2504
2578
2531
2532
2521
2498
2518
2468
2435
2472
2480
2486
2481
2444
2467
2496
2544
2541
2533
2531
2512
2472
2457
2533
2461
2457
2481
2494
2505
2496
2481
2497
2514
2483
2496
2533
2541
2514
2518
2508
2505
2488
2458
2477
2478
2502
2499
2482
2507
2530
2552
2541
2530
2524
2523
2487
2479
2485
2501
2479
2472
2477
2488
2502
2509
2516
2526
2563
2548
2537
2537
2516
2515
2503
2455
2363
2475
2471
2484
2487
2483
2461
2479
2535
2537
2545
2562
2522
2495
2478
2448
2454
2469
2481
2487
2510
2505
2530
2489
2490
2481
2510
2540
2526
2546
2524
2549
2479
2479
2463
2489
2487
2496
2459
2493
2505
2490
2488
2519
2543
2540
2538
2519
2473
2474
2456
2477
2538
2483
2488
2501
2483
2500
2520
2521
2539
2518
2512
2524
2502
2501
2470
2455
2448
2476
2470
2499
2513
2478
2492
2529
2533
2532
2538
2534
2532
2524
2510
2497
2492
2472
2487
2476
2496
2462
2518
2539
2522
2473
2525
2534
2511
2509
2517
2492
2480
2455
2471
2485
2509
2524
2472
2497
2516
2537
2568
2533
2525
2529
2496
2500
2484
2465
2457
2469
2476
2498
2536
2482
2507
2518
2532
2488
2516
2495
2527
2539
2508
2474
2437
2423
2459
2489
2478
2475
2512
2510
2504
2484
2490
2521
2533
2501
2539
2504
2496
2492
2466
2497
2508
2501
2480
2500
2493
2493
2528
2535
2545
2544
2518
2495
2484
2503
2491
2516
2492
2486
2505
2513
2490
2522
2525
2546
2523
2537
2528
2521
2498
2486
2478
2476
2484
2431
2484
2489
2518
2498
2511
2473
2485
2540
2507
2516
2503
2487
2484
2467
2418
2478
2495
2495
2509
2515
2500
2516
2527
2544
2518
2524
2507
2516
2478
2496
2454
2510
2509
2499
2503
2536
2479
2504
2535
2597
2555
2536
2549
2524
2535
2498
2499
2469
2506
2472
2491
2490
2524
2495
2519
2523
2555
2556
2529
2538
2487
2530
2529
2486
2476
2437
2472
2468
2494
2497
2510
2503
2509
2524
2515
2509
2505
2503
2463
2482
2446
2452
2464
2475
2483
2417
2412
2424
2476
2431
2393
2478
2479
2521
2444
2461
2463
2401
2351
2287
2411
2526
2489
2448
2429
2499
2497
2427
2339
2336
2426
2440
2495
2517
2442
2408
2485
2406
2395
2377
2367
2447
2500
2459
2449
2431
2485
2521
2453
2437
2378
2401
2517
2476
2492
2467
2475
2487
2566
2453
2412
2370
2429
2478
2476
2528
2494
2445
2352
2386
2420
2415
2419
2398
2494
2452
2509
2498
2486
2468
2653
2465
2472
2487
2431
2458
2380
2409
2484
2425
2394
2308
2374
2441
2521
2500
2499
2456
2550
2618
2537
2434
2408
2328
2317
2364
2584
2369
2439
2411
2444
2443
2416
2450
2488
2505
2566
2513
2515
2478
2475
2469
2473
2495
2482
2452
2473
2418
2403
2428
2499
2531
2492
2425
2482
2446
2503
2436
2427
2368
2387
2504
2503
2491
2493
2519
2493
2463
2449
2451
2485
2484
2449
2466
2438
2433
2454
2448
2417
2456
2460
2438
2456
2441
2453
2430
2456
2479
2468
2489
2584
2540
2432
2369
2383
2447
2459
2431
2401
2414
2393
2423
2524
2497
2479
2484
2501
2458
2388
2402
2442
2456
2407
2351
2330
2187
2380
2437
2584
2546
2489
2473
2463
2509
2512
2553
2532
2462
2381
2383
2419
2487
2446
2467
2510
2507
2470
2412
2468
2463
2472
2495
2457
2400
2452
2377
2484
2494
2495
2477
2487
2473
2502
2527
2453
2434
2425
2429
2486
2497
2492
2494
2465
2452
2469
2458
2427
2436
2408
2494
2492
2513
2473
2437
2448
2425
2457
2420
2365
2372
2423
2437
2371
2455
2540
2524
2506
2456
2461
2505
2540
2512
2488
2467
2374
2378
2403
2373
2384
2468
2497
2561
2558
2497
2489
2460
2454
2418
2463
2454
2458
2478
2463
2461
2418
2374
2397
2474
2442
2516
2570
2525
2479
2419
2453
2447
2391
2440
2435
2489
2429
2445
2524
2489
2461
2463
2465
2438
2436
2452
2456
2462
2465
2440
2421
2430
2431
2449
2429
2512
2488
2409
2405
2439
2468
2419
2444
2538
2453
2408
2455
2479
2475
2473
2527
2516
2448
2400
2495
2511
2456
2499
2463
2485
2431
2462
2484
2477
2488
2461
2457
2451
2444
2442
2429
2410
2444
2420
2431
2431
2473
2496
2510
2494
2471
2423
2388
2426
2477
2449
2465
2460
2484
2479
2501
2461
2525
2506
2483
2502
2419
2370
2335
2438
2490
2457
2387
2441
2447
2506
2472
2483
2523
2476
2455
2447
2456
2450
2499
2509
2440
2492
2474
2448
2414
2393
2386
2324
2381
2410
2502
2498
2485
2466
2496
2463
2510
2465
2444
2513
2477
2458
2378
2388
2425
2527
2556
2514
2437
2500
2422
2398
2373
2436
2401
2444
2425
2464
2462
2499
2506
2530
2477
2418
2413
2433
2463
2487
2551
2508
2494
2500
2469
2497
2434
2443
2451
2460
2467
2465
2432
2472
2486
2479
2483
2387
2408
2451
2473
2516
2487
2433
2458
2430
2404
2404
2534
2546
2472
2472
2412
2459
2395
2445
2417
2430
2484
2467
2487
2492
2495
2471
2466
2458
2472
2472
2457
2402
2454
2437
2451
2376
2448
2506
2486
2503
2483
2500
2552
2553
2459
2436
2483
2480
2461
2460
2449
2405
2429
2449
2469
2477
2494
2486
2472
2450
2499
2488
2482
2418
2386
2501
2478
2460
2473
2453
2459
2484
2438
2447
2505
2511
2387
2442
2436
2457
2377
2443
2453
2464
2450
2483
2475
2454
2375
2382
2312
2338
2440
2479
2530
2470
2406
2374
2507
2628
2490
2456
2454
2521
2512
2414
2488
2524
2513
2457
2469
2467
2466
2509
2494
2506
2474
2482
2467
2450
2514
2469
2425
2436
2448
2445
2417
2477
2425
2439
2428
2409
2430
2448
2459
2413
2471
2481
2448
2516
2525
2439
2455
2458
2488
2496
2536
2477
2468
2476
2462
2502
2534
2463
2462
2477
2493
2477
2485
2452
2378
2461
2493
2541
2503
2441
2495
2564
2511
2383
2441
2466
2411
2415
2399
2418
2475
2437
2437
2453
2468
2491
2496
2475
2461
2456
2468
2437
2495
2503
2482
2448
2452
2478
2451
2440
2473
2489
2531
2424
2443
2473
2473
2442
2507
2482
2505
2465
2413
2527
2521
2503
2460
2425
2420
2461
2463
2489
2463
2464
2482
2417
2389
2448
2460
2437
2462
2419
2445
2511
2481
2439
2408
2432
2457
2435
2436
2405
2438
2474
2439
2436
2437
2459
2474
2519
2500
2477
2582
2528
2489
2462
2509
2423
2454
2447
2513
2503
2487
2467
2465
2514
2500
2433
2494
2450
2443
2410
2460
2383
2388
2428
2469
2489
2495
2506
2500
2392
2424
2529
2514
2474
2452
2462
2475
2405
2415
2410
2438
2424
2520
2522
2501
2514
2419
2449
2450
2476
2435
2335
2413
2468
2489
2450
2479
2482
2532
2486
2418
2384
2579
2531
2492
2528
2475
2482
2479
2476
2436
2357
2475
2453
2509
2496
2439
2458
2519
2492
2487
2402
2455
2462
2473
2484
2480
2466
2463
2452
2438
2486
2426
2439
2470
2486
2505
2525
2479
2475
2437
2432
2484
2471
2444
2423
2509
2482
2479
2436
2463
2446
2474
2460
2411
2460
2520
2469
2420
2363
2443
2510
2504
2396
2462
2454
2410
2433
2491
2505
2535
2512
2480
2516
2518
2488
2437
2444
2444
2477
2466
2471
2472
2495
2469
2427
2455
2452
2480
2449
2464
2491
2489
2441
2425
2449
2442
2419
2415
2437
2495
2504
2463
2408
2476
2506
2484
2482
2443
2438
2502
2490
2496
2442
2444
2418
2415
2440
2418
2433
2441
2444
2435
2437
2440
2466
2396
2447
2458
2475
2441
2452
2476
2493
2451
2505
2490
2527
2534
2567
2541
2493
2432
2479
2481
2459
2448
2506
2478
2464
2514
2505
2461
2489
2469
2462
2473
2438
2452
2456
2458
2464
2456
2474
2461
2468
2448
2467
2487
2445
2467
2510
2463
2458
2454
2437
2457
2417
2380
2362
2391
2456
2432
2455
2454
2478
2528
2509
2556
2591
2482
2422
2400
2365
2390
2433
2491
2491
2501
2501
2515
2496
2458
2438
2427
2402
2506
2493
2492
2466
2467
2499
2474
2393
2439
2446
2430
2411
2365
2391
2548
2723
2537
2460
2519
2529
2529
2479
2518
2479
2435
2415
2414
2496
2499
2468
2492
2439
2410
2504
2490
2477
2506
2444
2469
2417
2398
2452
2464
2448
2364
2471
2460
2511
2490
2473
2415
2441
2532
2573
2429
2406
2335
2315
2401
2397
2392
2419
2480
2418
2464
2518
2519
2464
2476
2474
2518
2567
2518
2486
2433
2451
2438
2502
2547
2487
2447
2495
2443
2443
2432
2444
2436
2421
2389
2435
2429
2415
2470
2446
2515
2535
2495
2467
2435
2542
2509
2505
2530
2487
2481
2481
2468
2467
2419
2433
2421
2440
2446
2480
2496
2464
2420
2486
2435
2555
2529
2454
2452
2412
2400
2470
2461
2501
2509
2462
2436
2434
2439
2440
2426
2366
2395
2423
2439
2458
2436
2401
2361
2404
2428
2498
2495
2472
2469
2585
2577
2511
2481
2479
2530
2530
2505
2461
2464
2469
2476
2497
2506
2472
2467
2459
2465
2465
2466
2476
2469
2474
2464
2479
2436
2445
2487
2463
2434
2440
2430
2459
2460
2463
2475
2515
2452
2512
2531
2504
2446
2461
2420
2416
2478
2498
2503
2493
2504
2486
2518
2511
2507
2431
2448
2435
2436
2391
2398
2413
2464
2399
2455
2450
2464
2485
2471
2458
2485
2438
2440
2462
2497
2462
2442
2471
2464
2459
2400
2400
2511
2514
2536
2440
2517
2555
2559
2521
2507
2467
2490
2465
2455
2487
2464
2480
2485
2473
2428
2418
2465
2436
2505
2503
2515
2495
2514
2481
2455
2436
2458
2455
2428
2461
2462
2461
2421
2383
2457
2427
2458
2470
2480
2492
2497
2491
2425
2509
2467
2455
2484
2512
2499
2485
2496
2469
2514
2474
2411
2468
2521
2446
2458
2444
2396
2418
2404
2474
2501
2500
2549
2564
2463
2471
2463
2447
2405
2395
2361
2363
2456
2500
2444
2466
2508
2558
2547
2525
2442
2461
2461
2442
2500
2491
2467
2450
2441
2463
2469
2519
2523
2546
2472
2436
2455
2458
2441
2478
2494
2438
2481
2535
2510
2468
2480
2497
2445
2452
2477
2497
2528
2504
2556
2551
2509
2456
2436
2403
2381
2420
2388
2425
2451
2401
2495
2503
2507
2442
2436
2487
2497
2484
2468
2467
2442
2415
2501
2449
2444
2478
2460
2487
2435
2440
2428
2477
2468
2485
2487
2451
2439
2415
2501
2401
2494
2513
2472
2426
2492
2493
2497
2498
2553
2505
2493
2478
2483
2411
2367
2349
2380
2380
2381
2478
2480
2510
2532
2508
2484
2489
2506
2515
2506
2497
2461
2472
2492
2429
2483
2385
2421
2484
2495
2439
2444
2494
2477
2563
2513
2489
2466
2475
2459
2417
2374
2468
2444
2450
2441
2411
2464
2469
2357
2467
2425
2427
2459
2498
2521
2469
2397
2353
2417
2380
2410
2490
2517
2538
2420
2494
2541
2509
2509
2514
2467
2502
2422
2416
2437
2448
2452
2427
2469
2519
2503
2470
2460
2445
2445
2464
2453
2547
2471
2523
2492
2429
2463
2474
2476
2525
2471
2510
2479
2482
2500
2531
2512
2497
2419
2407
2440
2467
2445
2420
2487
2509
2456
2482
2458
2499
2460
2419
2425
2459
2473
2430
2399
2366
2430
2462
2412
2443
2500
2506
2429
2489
2567
2535
2481
2508
2461
2454
2477
2444
2459
2478
2411
2431
2452
2459
2484
2535
2513
2505
2501
2454
2454
2480
2442
2501
2520
2430
2451
2414
2481
2488
2489
2507
2491
2469
2444
2469
2495
2486
2464
2428
2436
2477
2453
2444
2454
2477
2503
2543
2519
2450
2415
2469
2496
2463
2460
2442
2453
2457
2428
2444
2394
2418
2340
2385
2418
2508
2525
2510
2511
2515
2501
2497
2468
2445
2452
2485
2438
2511
2496
2484
2462
2463
2483
2511
2473
2494
2517
2457
2422
2448
2453
2395
2448
2560
2539
2471
2441
2512
2560
2523
2456
2480
2466
2461
2499
2492
2488
2442
2476
2464
2519
2484
2503
2499
2437
2447
2487
2470
2480
2490
2487
2493
2489
2481
2445
2466
2525
2480
2450
2473
2494
2469
2448
2430
2424
2456
2496
2489
2481
2466
2465
2421
2401
2398
2441
2421
2432
2468
2493
2444
2382
2376
2495
2555
2478
2474
2491
2545
2533
2471
2457
2431
2453
2442
2425
2473
2450
2450
2408
2467
2465
2524
2544
2499
2463
2447
2424
2483
2502
2495
2480
2440
2431
2428
2448
2515
2470
2514
2509
2473
2470
2432
2480
2469
2429
2446
2523
2440
2481
2487
2486
2442
2487
2483
2500
2492
2459
2473
2454
2402
2410
2444
2452
2451
2534
2508
2486
2484
2433
2406
2430
2427
2428
2397
2441
2398
2359
2436
2464
2490
2535
2523
2505
2540
2527
2527
2508
2450
2468
2444
2446
2428
2440
2512
2518
2480
2482
2466
2495
2481
2472
2470
2454
2470
2533
2517
2491
2427
2428
2430
2473
2480
2468
2492
2465
2478
2477
2455
2472
2502
2520
2496
2464
2451
2425
2389
2405
2428
2488
2508
2510
2506
2459
2515
2470
2453
2503
2499
2498
2483
2464
2376
2395
2365
2400
2436
2428
2431
2442
2430
2561
2511
2478
2424
2465
2479
2430
2407
2413
2423
2517
2409
2316
2424
2495
2502
2439
2436
2467
2555
2519
2476
2435
2552
2558
2531
2480
2505
2481
2486
2424
2440
2478
2485
2519
2471
2512
2492
2487
2434
2399
2503
2462
2358
2344
2445
2523
2510
2555
2471
2487
2519
2517
2420
2435
2538
2519
2444
2455
2506
2523
2532
2439
2429
2448
2375
2420
2471
2468
2517
2419
2500
2541
2517
2526
2465
2480
2422
2463
2464
2459
2460
2485
2539
2451
2418
2491
2448
2434
2445
2532
2487
2442
2466
2425
2411
2437
2391
2481
2537
2519
2459
2440
2502
2484
2515
2475
2508
2506
2471
2433
2470
2483
2467
2486
2450
2435
2421
2393
2481
2479
2466
2422
2442
2527
2469
2496
2465
2474
2540
2486
2490
2493
2462
2474
2493
2496
2495
2523
2501
2462
2513
2454
2416
2406
2370
2465
2317
2442
2502
2542
2518
2437
2414
2490
2467
2441
2461
2494
2495
2468
2441
2490
2506
2402
2435
2453
2455
2495
2526
2512
2564
2509
2495
2445
2448
2463
2451
2442
2414
2442
2444
2470
2437
2452
2420
2474
2469
2462
2474
2519
2490
2456
2465
2436
2461
2462
2462
2441
2459
2453
2502
2521
2483
2462
2436
2381
2447
2457
2459
2495
2495
2413
2399
2457
2476
2447
2465
2450
2455
2454
2457
2552
2504
2538
2562
2518
2505
2482
2479
2381
2443
2480
2523
2509
2415
2439
2450
2488
2508
2489
2494
2471
2436
2455
2429
2470
2483
2504
2475
2513
2489
2467
2479
2439
2493
2480
2482
2488
2460
2462
2465
2457
2497
2440
2466
2449
2440
2414
2439
2460
2428
2411
2430
2448
2439
2456
2531
2506
2463
2466
2433
2397
2334
2468
2538
2392
2457
2466
2484
2514
2518
2510
2457
2466
2467
2472
2545
2444
2455
2436
2421
2426
2422
2529
2531
2488
2478
2482
2451
2469
2504
2419
2394
2470
2496
2467
2423
2440
2455
2470
2521
2526
2527
2507
2489
2499
2473
2478
2515
2471
2493
2451
2473
2481
2465
2483
2471
2436
2421
2409
2487
2513
2501
2378
2413
2470
2523
2454
2452
2475
2482
2483
2417
2442
2431
2451
2493
2483
2442
2403
2476
2538
2548
2452
2416
2432
2399
2406
2452
2462
2464
2464
2533
2511
2499
2506
2473
2491
2438
2482
2364
2391
2384
2455
2463
2507
2504
2493
2486
2469
2475
2476
2502
2518
2479
2432
2470
2417
2381
2417
2467
2515
2519
2488
2460
2474
2468
2481
2511
2516
2506
2502
2469
2445
2472
2467
2476
2474
2484
2459
2449
2412
2456
2505
2489
2458
2431
2454
2420
2494
2444
2483
2469
2477
2463
2428
2468
2435
2390
2457
2502
2518
2493
2441
2465
2438
2380
2370
2460
2410
2478
2530
2472
2448
2492
2568
2521
2566
2502
2490
2421
2402
2443
2575
2427
2431
2490
2460
2447
2453
2453
2463
2520
2500
2505
2543
2524
2496
2474
2444
2520
2484
2462
2483
2486
2454
2443
2447
2463
2463
2509
2431
2395
2446
2447
2441
2410
2387
2458
2469
2473
2497
2497
2475
2467
2470
2434
2472
2516
2556
2478
2437
2430
2464
2396
2434
2465
2474
2492
2492
2502
2443
2470
2480
2474
2482
2542
2522
2453
2438
2435
2377
2431
2469
2422
2336
2452
2460
2535
2472
2499
2511
2466
2461
2450
2493
2526
2450
2465
2448
2462
2442
2507
2452
2479
2435
2461
2458
2482
2499
2434
2457
2479
2448
2418
2450
2479
2458
2468
2450
2493
2460
2448
2494
2475
2462
2471
2485
2461
2454
2472
2467
2456
2483
2544
2471
2471
2500
2505
2421
2426
2486
2463
2449
2432
2478
2488
2433
2413
2443
2544
2424
2373
2371
2419
2385
2395
2510
2523
2495
2474
2523
2451
2470
2471
2448
2437
2402
2401
2454
2454
2454
2453
2516
2528
2482
2472
2458
2457
2487
2466
2457
2455
2466
2451
2423
2514
2471
2486
2471
2424
2505
2501
2520
2472
2449
2421
2425
2422
2442
2440
2553
2518
2476
2457
2476
2496
2480
2443
2468
2519
2507
2442
2488
2481
2495
2450
2442
2490
2489
2418
2445
2482
2482
2429
2464
2492
2509
2507
2546
2459
2411
2410
2442
2466
2504
2477
2444
2413
2489
2498
2498
2455
2465
2484
2463
2397
2445
2454
2444
2391
2420
2480
2498
2451
2485
2508
2548
2521
2518
2519
2506
2501
2517
2478
2475
2467
2460
2449
2478
2467
2474
2449
2477
2456
2474
2449
2447
2455
2498
2485
2465
2449
2451
2441
2514
2510
2445
2443
2523
2506
2457
2475
2512
2462
2480
2499
2455
2454
2454
2441
2397
2389
2423
2441
2497
2485
2608
2478
2382
2395
2456
2437
2453
2457
2405
2360
2483
2479
2434
2476
2463
2516
2512
2492
2519
2470
2496
2424
2439
2476
2574
2403
2407
2451
2467
2484
2500
2490
2471
2532
2461
2462
2443
2473
2470
2507
2500
2446
2435
2410
2398
2438
2448
2436
2472
2457
2484
2474
2552
2511
2501
2494
2509
2445
2449
2457
2455
2505
2472
2479
2441
2428
2428
2468
2436
2454
2424
2490
2471
2393
2392
2457
2393
2422
2332
2452
2393
2382
2467
2528
2492
2518
2534
2518
2475
2453
2495
2472
2479
2472
2395
2472
2512
2473
2529
2539
2480
2460
2502
2502
2481
2500
2485
2493
2469
2487
2465
2486
2457
2483
2481
2484
2438
2452
2527
2479
2509
2458
2481
2410
2383
2396
2464
2514
2540
2474
2462
2470
2429
2516
2573
2445
2437
2453
2442
2455
2417
2403
2398
2439
2458
2455
2550
2459
2489
2455
2490
2514
2535
2490
2472
2479
2484
2473
2466
2442
2477
2442
2448
2424
2463
2481
2469
2518
2490
2526
2500
2507
2516
2527
2471
2455
2428
2491
2369
2410
2449
2506
2451
2441
2472
2497
2482
2449
2468
2554
2512
2474
2478
2404
2422
2426
2436
2443
2459
2440
2505
2469
2511
2453
2465
2463
2447
2480
2452
2446
2438
2442
2421
2448
2392
2358
2369
2420
2542
2482
2452
2489
2399
2401
2461
2388
2434
2466
2478
2551
2520
2479
2495
2544
2477
2510
2532
2466
2395
2497
2499
2474
2443
2468
2473
2481
2495
2508
2496
2467
2486
2442
2487
2492
2466
2422
2474
2469
2466
2462
2407
2423
2394
2356
2459
2474
2461
2484
2487
2465
2486
2528
2535
2619
2490
2463
2422
2417
2416
2449
2426
2471
2435
2445
2457
2506
2512
2442
2416
2462
2559
2461
2346
2382
2409
2433
2471
2422
2434
2465
2466
2495
2516
2469
2467
2456
2436
2473
2492
2518
2491
2447
2380
2429
2482
2497
2581
2571
2390
2426
2488
2542
2423
2470
2517
2476
2453
2455
2460
2441
2462
2389
2373
2456
2565
2546
2542
2502
2448
2442
2472
2418
2446
2447
2457
2475
2515
2477
2376
2457
2468
2475
2495
2531
2483
2491
2493
2434
2392
2432
2399
2471
2456
2419
2502
2501
2397
2410
2439
2424
2479
2525
2492
2470
2448
2400
2525
2500
2480
2466
2434
2473
2474
2515
2522
2468
2458
2451
2459
2461
2488
2515
2448
2428
2427
2437
2470
2463
2463
2437
2482
2473
2416
2404
2429
2484
2528
2439
2338
2433
2510
2498
2457
2353
2416
2410
2365
2388
2510
2529
2397
2360
2414
2506
2512
2526
2525
2476
2394
2368
2484
2587
2579
2536
2528
2438
2379
2448
2472
2409
2380
2448
2521
2554
2597
2487
2455
2419
2458
2488
2538
2452
2476
2483
2433
2553
2531
2474
2485
2517
2490
2407
2398
2377
2487
2679
2491
2331
2359
2413
2450
2450
2440
2541
2515
2486
2534
2470
2449
2446
2488
2451
2429
2460
2420
2452
2393
2450
2436
2483
2467
2439
2434
2435
2388
2331
2358
2412
2432
2502
2448
2471
2443
2422
2456
2407
2449
2566
2471
2466
2510
2495
2505
2363
2528
2510
2437
2444
2471
2441
2392
2489
2517
2418
2401
2498
2509
2453
2459
2493
2511
2486
2398
2426
2504
2473
2431
2489
2497
2424
2553
2471
2409
2439
2388
2438
2488
2503
2421
2371
2455
2479
2483
2457
2409
2444
2431
2454
2476
2536
2497
2508
2477
2427
2406
2499
2434
2443
2389
2365
2444
2550
2516
2478
2445
2426
2469
2460
2455
2359
2345
2363
2521
2623
2416
2441
2553
2519
2581
2523
2439
2467
2527
2465
2408
2409
2507
2555
2540
2436
2415
2421
2397
2452
2467
2556
2522
2478
2461
2507
2397
2374
2358
2440
2456
2484
2467
2504
2485
2499
2489
2461
2514
2485
2510
2543
2429
2394
2409
2450
2477
2432
2391
2430
2449
2438
2427
2400
2434
2494
2502
2588
2535
2458
2451
2430
2478
2496
2438
2471
2468
2463
2463
2401
2417
2477
2469
2476
2486
2477
2463
2451
2456
2511
2419
2464
2434
2437
2492
2466
2427
2466
2410
2489
2489
2498
2462
2504
2448
2421
2399
2450
2376
2382
2451
2485
2479
2511
2527
2567
2514
2469
2482
2452
2450
2474
2471
2360
2419
2451
2405
2431
2563
2468
2481
2503
2455
2488
2438
2468
2412
2350
2357
2471
2492
2544
2486
2478
2467
2468
2384
2409
2487
2437
2474
2492
2493
2469
2447
2496
2489
2412
2435
2453
2470
2458
2421
2449
2400
2340
2366
2352
2464
2491
2515
2534
2447
2497
2484
2558
2487
2453
2466
2465
2488
2437
2475
2522
2523
2507
2547
2481
2473
2437
2435
2412
2398
2425
2427
2450
2444
2494
2463
2569
2480
2511
2505
2477
2446
2492
2483
2487
2406
2442
2465
2463
2443
2439
2425
2458
2469
2453
2466
2477
2470
2433
2424
2410
2450
2486
2423
2437
2444
2440
2506
2492
2530
2506
2517
2464
2471
2480
2455
2373
2372
2402
2476
2526
2487
2495
2492
2479
2453
2455
2504
2440
2478
2497
2481
2475
2492
2500
2501
2434
2488
2481
2445
2463
2449
2479
2442
2477
2457
2456
2437
2474
2413
2398
2436
2361
2356
2389
2416
2492
2540
2515
2471
2487
2479
2503
2584
2507
2468
2456
2424
2433
2435
2459
2408
2484
2467
2462
2478
2471
2492
2466
2474
2445
2508
2505
2458
2426
2397
2431
2490
2490
2518
2538
2472
2454
2479
2469
2469
2410
2479
2487
2437
2424
2438
2437
2478
2489
2473
2419
2420
2476
2449
2464
2487
2508
2462
2447
2453
2450
2504
2442
2379
2352
2564
2475
2413
2409
2502
2545
2520
2462
2463
2493
2469
2423
2425
2486
2454
2378
2368
2403
2385
2467
2427
2464
2525
2453
2447
2507
2518
2444
2366
2425
2758
2417
2426
2470
2474
2464
2469
2433
2411
2477
2522
2476
2480
2468
2460
2468
2514
2484
2429
2387
2486
2418
2467
2499
2511
2546
2633
2692
2549
2393
2375
2438
2487
2426
2441
2446
2431
2403
2413
2404
2402
2444
2471
2558
2544
2486
2438
2475
2498
2500
2446
2399
2426
2404
2453
2448
2423
2441
2528
2475
2472
2436
2459
2335
2435
2540
2555
2553
2472
2383
2436
2497
2501
2420
2447
2508
2533
2506
2478
2524
2599
2557
2441
2416
2489
2514
2469
2439
2436
2484
2515
2488
2484
2470
2451
2456
2490
2479
2430
2451
2413
2437
2432
2385
2389
2413
2358
2378
2441
2531
2448
2530
2544
2530
2521
2440
2398
2418
2442
2470
2466
2480
2442
2372
2347
2466
2509
2451
2450
2326
2347
2463
2536
2540
2497
2465
2508
2461
2448
2473
2504
2477
2524
2497
2521
2474
2470
2516
2489
2456
2408
2419
2329
2416
2440
2537
2525
2543
2495
2490
2476
2391
2432
2452
2455
2473
2482
2425
2501
2466
2395
2398
2445
2430
2421
2499
2556
2483
2422
2473
2579
2474
2467
2475
2455
2454
2359
2399
2446
2461
2448
2440
2397
2426
2395
2417
2487
2592
2549
2479
2509
2474
2457
2427
2412
2390
2380
2420
2388
2417
2607
2470
2458
2498
2558
2422
2349
2522
2443
2454
2460
2454
2416
2491
2496
2434
2398
2405
2465
2523
2502
2516
2470
2483
2537
2462
2457
2429
2429
2446
2462
2444
2548
2547
2430
2431
2433
2466
2464
2433
2456
2443
2428
2411
2428
2465
2461
2441
2392
2501
2544
2578
2554
2455
2538
2516
2477
2479
2417
2504
2461
2439
2446
2441
2387
2442
2506
2429
2460
2579
2477
2427
2403
2443
2456
2422
2406
2439
2464
2438
2467
2450
2436
2380
2504
2564
2585
2525
2497
2444
2445
2487
2499
2470
2420
2473
2424
2491
2481
2448
2447
2495
2524
2423
2484
2492
2486
2504
2497
2453
2427
2443
2448
2460
2456
2460
2429
2487
2552
2535
2519
2479
2480
2530
2461
2408
2360
2421
2464
2475
2436
2433
2476
2453
2409
2445
2449
2506
2485
2437
2443
2489
2437
2489
2422
2417
2435
2448
2470
2412
2430
2410
2428
2443
2502
2448
2455
2513
2471
2386
2450
2485
2516
2458
2475
2433
2413
2446
2493
2499
2479
2446
2473
2484
2500
2493
2487
2469
2465
2462
2429
2461
2476
2469
2503
2499
2379
2498
2456
2456
2452
2482
2474
2450
2442
2447
2493
2480
2478
2456
2432
2507
2519
2456
2473
2521
2486
2492
2445
2457
2572
2503
2438
2436
2432
2430
2452
2437
2457
2483
2504
2502
2506
2480
2474
2458
2402
2379
2406
2383
2381
2405
2429
2449
2505
2457
2423
2439
2518
2493
2516
2485
2501
2481
2458
2417
2405
2485
2500
2456
2511
2485
2496
2487
2479
2502
2432
2490
2507
2494
2481
2479
2497
2498
2476
2481
2450
2450
2419
2471
2469
2461
2471
2463
2426
2488
2463
2472
2481
2484
2480
2481
2446
2477
2445
2449
2442
2470
2473
2480
2443
2463
2491
2532
2518
2498
2509
2508
2485
2500
2470
2402
2426
2431
2459
2478
2477
2449
2485
2457
2444
2449
2488
2501
2500
2495
2488
2474
2476
2463
2484
2480
2488
2477
2470
2464
2458
2448
2452
2522
2517
2506
2497
2485
2473
2449
2454
2465
2478
2484
2461
2476
2507
2561
2502
2497
2507
2502
2497
2466
2459
2475
2445
2444
2472
2471
2465
2489
2453
2462
2487
2493
2473
2490
2504
2488
2440
2433
2426
2429
2431
2441
2460
2458
2426
2485
2478
2516
2517
2532
2501
2479
2504
2492
2468
2435
2404
2446
2479
2484
2502
2488
2459
2488
2472
2539
2507
2484
2495
2467
2432
2424
2468
2461
2475
2487
2500
2501
2465
2493
2500
2516
2515
2508
2513
2503
2522
2460
2448
2413
2421
2433
2473
2477
2481
2466
2440
2453
2481
2517
2510
2489
2484
2486
2482
2459
2471
2457
2445
2482
2478
2490
2487
2475
2424
2456
2500
2464
2450
2453
2458
2439
2416
2468
2438
2473
2484
2493
2477
2468
2497
2520
2548
2485
2495
2470
2492
2473
2436
2396
2449
2439
2458
2498
2471
2478
2464
2490
2523
2483
2506
2512
2487
2505
2495
2476
2410
2461
2481
2473
2482
2483
2457
2478
2478
2540
2502
2517
2477
2477
2469
2483
2468
2434
2410
2438
2466
2473
2494
2487
2459
2431
2501
2481
2477
2463
2465
2480
2458
2454
2441
2469
2461
2488
2488
2480
2498
2480
2515
2506
2523
2507
2482
2492
2483
2476
2459
2424
2430
2445
2466
2468
2454
2485
2483
2515
2545
2509
2503
2501
2470
2400
2477
2447
2425
2458
2467
2471
2476
2488
2464
2471
2522
2499
2515
2484
2499
2492
2478
2476
2485
2407
2431
2447
2465
2454
2489
2489
2493
2522
2491
2515
2511
2483
2502
2501
2449
2418
2421
2467
2485
2482
2487
2473
2464
2472
2508
2467
2479
2479
2486
2469
2470
2463
2478
2462
2463
2469
2468
2491
2508
2517
2467
2481
2483
2507
2501
2494
2468
2451
2438
2420
2444
2475
2475
2497
2467
2476
2488
2515
2489
2491
2510
2541
2450
2507
2482
2442
2414
2435
2478
2476
2449
2504
2461
2463
2480
2529
2488
2478
2463
2481
2458
2470
2484
2486
2458
2470
2486
2501
2488
2486
2489
2489
2494
2499
2485
2499
2450
2463
2486
2444
2468
2465
2478
2483
2486
2467
2479
2508
2503
2560
2511
2525
2507
2481
2462
2474
2469
2481
2474
2467
2475
2501
2473
2470
2491
2463
2480
2483
2493
2487
2459
2449
2418
2408
2428
2465
2476
2444
2413
2463
2508
2502
2486
2504
2500
2506
2466
2495
2453
2422
2451
2494
2481
2482
2485
2459
2477
2479
2517
2538
2502
2502
2489
2484
2493
2492
2503
2446
2471
2464
2489
2464
2474
2448
2521
2447
2473
2489
2486
2489
2467
2462
2482
2467
2483
2489
2467
2497
2495
2473
2495
2488
2503
2463
2520
2469
2459
2450
2436
2418
2436
2461
2465
2497
2574
2467
2469
2475
2481
2516
2490
2487
2465
2492
2446
2466
2478
2409
2461
2483
2497
2499
2497
2471
2465
2500
2524
2501
2492
2492
2484
2475
2448
2455
2474
2453
2484
2483
2475
2473
2493
2474
2473
2487
2494
2501
2491
2496
2484
2450
2446
2461
2475
2455
2472
2480
2468
2499
2491
2509
2514
2479
2485
2496
2518
2483
2455
2439
2490
2446
2471
2476
2467
2493
2478
2491
2476
2502
2491
2488
2483
2515
2459
2457
2436
2422
2455
2464
2483
2475
2456
2489
2517
2520
2516
2510
2510
2487
2495
2463
2446
2484
2441
2463
2469
2472
2432
2474
2493
2499
2500
2503
2498
2493
2486
2494
2476
2435
2426
2453
2474
2476
2472
2490
2480
2491
2463
2480
2466
2509
2490
2477
2496
2475
2465
2431
2469
2491
2476
2474
2479
2461
2457
2504
2475
2474
2485
2473
2466
2442
2447
2488
2458
2487
2453
2469
2465
2453
2478
2495
2478
2437
2489
2444
2510
2504
2487
2460
2446
2434
2485
2491
2491
2502
2480
2461
2494
2505
2517
2486
2492
2513
2473
2471
2452
2465
2466
2471
2480
2459
2465
2488
2478
2464
2518
2508
2486
2498
2484
2425
2510
2444
2500
2467
2466
2466
2484
2496
2486
2511
2464
2481
2504
2507
2479
2484
2484
2439
2436
2447
2435
2453
2449
2450
2434
2411
2470
2495
2496
2471
2492
2468
2440
2490
2476
2441
2503
2473
2499
2495
2502
2525
2499
2509
2516
2518
2497
2457
2491
2454
2488
2460
2412
2415
2421
2482
2496
2496
2482
2466
2485
2508
2489
2486
2515
2455
2481
2467
2427
2487
2458
2468
2460
2474
2490
2509
2481
2444
2473
2500
2474
2476
2495
2476
2451
2422
2421
2494
2473
2484
2485
2461
2513
2424
2507
2528
2484
2485
2476
2493
2493
2486
2445
2427
2412
2437
2461
2476
2457
2459
2480
2453
2494
2500
2498
2491
2501
2475
2465
2455
2470
2455
2489
2478
2522
2510
2470
2476
2489
2504
2502
2495
2500
2498
2463
2467
2452
2485
2466
2483
2473
2448
2478
2490
2498
2526
2518
2503
2436
2474
2489
2496
2482
2432
2409
2460
2484
2463
2456
2475
2529
2536
2527
2514
2510
2499
2477
2478
2467
2427
2453
2436
2454
2441
2471
2484
2487
2534
2509
2513
2496
2487
2484
2492
2497
2471
2435
2429
2427
2446
2449
2473
2479
2486
2501
2504
2511
2537
2510
2511
2503
2484
2453
2409
2462
2445
2438
2469
2457
2471
2492
2463
2460
2483
2505
2509
2514
2495
2517
2489
2449
2444
2462
2477
2488
2466
2490
2507
2488
2438
2490
2492
2468
2461
2470
2460
2459
2447
2463
2453
2475
2474
2467
2466
2466
2439
2458
2464
2472
2488
2472
2484
2478
2477
2434
2444
2493
2483
2492
2502
2486
2491
2504
2496
2479
2491
2496
2501
2495
2474
2455
2489
2494
2486
2490
2479
2484
2485
2463
2449
2468
2521
2498
2504
2508
2491
2463
2451
2473
2424
2484
2467
2396
2502
2494
2470
2443
2476
2522
2520
2497
2488
2477
2478
2460
2442
2485
2481
2464
2452
2460
2491
2512
2512
2500
2498
2487
2498
2471
2501
2489
2434
2441
2496
2487
2486
2485
2475
2482
2516
2508
2497
2507
2493
2488
2475
2444
2459
2430
2466
2462
2472
2482
2457
2488
2472
2501
2512
2511
2510
2493
2495
2494
2460
2435
2428
2468
2465
2457
2449
2487
2446
2430
2434
2519
2546
2509
2495
2496
2451
2454
2470
2456
2458
2483
2458
2466
2442
2493
2489
2478
2493
2504
2497
2492
2499
2470
2480
2466
2469
2447
2462
2455
2465
2485
2481
2500
2467
2487
2486
2506
2517
2489
2509
2483
2428
2458
2486
2500
2505
2499
2494
2505
2513
2483
2497
2512
2490
2495
2493
2489
2482
2420
2468
2456
2478
2477
2506
2462
2480
2500
2527
2500
2500
2501
2491
2483
2461
2467
2470
2445
2483
2478
2470
2472
2489
2469
2464
2478
2493
2506
2493
2503
2502
2458
2416
2461
2444
2466
2479
2502
2468
2474
2486
2505
2487
2511
2498
2508
2485
2459
2453
2479
2483
2452
2481
2470
2464
2456
2472
2455
2476
2492
2511
2510
2509
2482
2467
2485
2449
2489
2482
2494
2487
2496
2512
2479
2487
2504
2487
2470
2474
2478
2481
2498
2465
2464
2460
2456
2484
2487
2476
2499
2492
2476
2470
2440
2486
2489
2473
2470
2435
2449
2465
2451
2458
2463
2469
2450
2473
2478
2506
2535
2506
2494
2483
2479
2500
2471
2446
2490
2454
2468
2485
2451
2489
2461
2480
2447
2460
2475
2498
2492
2509
2505
2499
2482
2462
2467
2495
2500
2497
2485
2476
2478
2480
2503
2499
2507
2495
2478
2462
2463
2444
2454
2429
2485
2478
2490
2459
2502
2502
2499
2498
2485
2491
2481
2489
2487
2456
2455
2465
2473
2482
2492
2514
2456
2477
2474
2520
2508
2477
2486
2475
2489
2467
2438
2429
2450
2464
2473
2506
2504
2463
2471
2484
2500
2496
2493
2499
2453
2446
2445
2466
2471
2489
2477
2473
2475
2478
2482
2508
2565
2535
2523
2524
2520
2493
2552
2469
2461
2480
2462
2480
2484
2485
2465
2508
2510
2524
2520
2481
2491
2478
2482
2478
2476
2474
2453
2445
2456
2480
2470
2464
2496
2520
2534
2510
2509
2521
2505
2487
2487
2446
2432
2417
2467
2465
2455
2444
2472
2426
2453
2482
2511
2499
2513
2513
2489
2472
2464
2459
2492
2478
2477
2468
2466
2481
2497
2530
2538
2477
2506
2487
2464
2506
2486
2445
2420
2467
2492
2501
2498
2503
2461
2465
2442
2502
2494
2486
2479
2470
2466
2484
2439
2431
2455
2472
2483
2490
2496
2446
2498
2492
2501
2498
2511
2509
2494
2484
2464
2481
2487
2494
2476
2496
2489
2462
2501
2504
2535
2505
2455
2487
2488
2473
2487
2465
2478
2394
2413
2477
2463
2491
2481
2482
2460
2440
2455
2500
2473
2457
2445
2435
2436
2489
2531
2516
2496
2505
2498
2527
2492
2528
2504
2514
2522
2516
2466
2485
2475
2475
2425
2462
2460
2487
2484
2453
2468
2467
2488
2439
2505
2502
2501
2509
2477
2485
2470
2427
2455
2485
2480
2488
2476
2458
2498
2522
2531
2508
2503
2507
2472
2491
2467
2456
2463
2478
2458
2466
2431
2461
2472
2454
2453
2456
2478
2515
2520
2564
2521
2482
2465
2449
2448
2493
2492
2513
2490
2481
2465
2455
2510
2500
2528
2488
2484
2494
2464
2454
2453
2453
2484
2469
2470
2495
2467
2476
2497
2491
2496
2497
2551
2469
2458
2461
2497
2438
2462
2485
2473
2492
2526
2487
2538
2494
2506
2471
2509
2503
2489
2482
2454
2495
2437
2486
2466
2492
2437
2412
2485
2487
2454
2456
2512
2487
2491
2509
2501
2452
2431
2473
2441
2460
2451
2445
2487
2502
2550
2509
2514
2502
2503
2512
2499
2467
2420
2453
2481
2481
2493
2492
2500
2469
2475
2434
2487
2503
2489
2479
2486
2462
2428
2402
2462
2478
2478
2483
2493
2466
2512
2507
2535
2523
2495
2506
2492
2472
2500
2440
2472
2461
2459
2476
2468
2483
2490
2484
2519
2493
2499
2493
2482
2478
2477
2439
2423
2421
2395
2420
2432
2508
2471
2475
2497
2547
2531
2493
2507
2514
2500
2478
2462
2447
2461
2469
2487
2490
2471
2467
2497
2520
2501
2478
2499
2503
2498
2434
2476
2461
2409
2467
2469
2484
2490
2497
2482
2466
2520
2513
2518
2493
2502
2501
2509
2496
2464
2403
2427
2495
2479
2484
2491
2465
2470
2525
2530
2498
2489
2486
2486
2457
2460
2463
2500
2476
2441
2476
2481
2494
2477
2473
2515
2493
2491
2495
2466
2516
2497
2490
2394
2429
2459
2472
2490
2584
2488
2435
2478
2530
2512
2516
2512
2510
2503
2478
2484
2467
2437
2473
2466
2486
2510
2490
2492
2508
2468
2481
2481
2492
2446
2420
2435
2441
2445
2470
2466
2491
2496
2415
2478
2490
2480
2520
2541
2511
2509
2488
2494
2465
2485
2478
2461
2476
2477
2487
2482
2483
2508
2497
2493
2526
2517
2504
2491
2461
2462
2477
2477
2461
2459
2456
2463
2418
2466
2511
2536
2542
2561
2560
2525
2508
2524
2499
2474
2425
2478
2447
2486
2481
2467
2464
2463
2503
2509
2490
2476
2487
2481
2468
2487
2465
2482
2470
2492
2485
2474
2475
2490
2514
2506
2505
2501
2505
2505
2498
2447
2461
2461
2475
2466
2483
2479
2468
2471
2496
2484
2512
2492
2478
2489
2491
2494
2475
2458
2436
2433
2468
2465
2468
2471
2488
2510
2497
2442
2488
2494
2524
2514
2507
2481
2480
2441
2405
2462
2478
2472
2470
2436
2499
2481
2534
2512
2509
2508
2499
2444
2467
2470
2475
2454
2447
2479
2489
2501
2479
2496
2459
2503
2510
2506
2492
2455
2495
2476
2476
2463
2493
2476
2471
2508
2468
2509
2521
2530
2457
2484
2471
2489
2499
2455
2474
2474
2483
2479
2487
2491
2478
2492
2486
2490
2447
2508
2503
2511
2486
2456
2442
2437
2429
2440
2452
2442
2492
2502
2466
2465
2489
2511
2508
2493
2489
2482
2498
2494
2491
2491
2445
2525
2495
2455
2489
2497
2500
2481
2501
2455
2472
2502
2483
2447
2458
2454
2475
2498
2465
2479
2480
2508
2502
2492
2520
2533
2488
2506
2520
2490
2491
2484
2489
2465
2458
2475
2475
2518
2509
2472
2502
2526
2456
2489
2506
2486
2471
2453
2487
2446
2485
2444
2468
2481
2470
2475
2451
2476
2502
2491
2507
2529
2519
2510
2485
2455
2455
2490
2481
2483
2492
2489
2479
2456
2507
2525
2522
2511
2502
2496
2489
2498
2455
2416
2452
2449
2476
2482
2484
2488
2548
2499
2483
2502
2476
2475
2458
2465
2480
2503
2462
2507
2469
2483
2500
2502
2495
2481
2514
2490
2495
2546
2509
2454
2479
2455
2423
2394
2416
2449
2449
2476
2515
2459
2481
2452
2499
2481
2516
2503
2496
2485
2506
2469
2420
2467
2444
2481
2486
2480
2508
2496
2526
2508
2500
2505
2480
2507
2507
2490
2484
2439
2490
2446
2490
2496
2482
2459
2504
2511
2502
2481
2504
2509
2474
2490
2484
2467
2484
2475
2455
2489
2490
2481
2487
2468
2466
2480
2497
2476
2496
2448
2455
2454
2475
2481
2447
2464
2475
2424
2482
2467
2490
2469
2491
2500
2498
2501
2498
2501
2471
2418
2467
2475
2484
2487
2490
2454
2490
2503
2537
2504
2506
2498
2476
2456
2492
2461
2468
2487
2484
2478
2501
2503
2501
2488
2487
2475
2510
2513
2513
2513
2508
2464
2457
2476
2471
2453
2484
2478
2479
2445
2488
2537
2547
2506
2499
2479
2486
2474
2468
2469
2464
2452
2471
2475
2525
2472
2495
2494
2500
2495
2483
2497
2502
2476
2469
2435
2458
2466
2478
2476
2477
2492
2472
2493
2523
2493
2479
2505
2491
2485
2471
2496
2464
2452
2428
2484
2487
2499
2496
2461
2496
2469
2509
2505
2511
2495
2493
2456
2453
2472
2447
2457
2464
2489
2472
2496
2486
2483
2504
2475
2509
2519
2494
2496
2469
2458
2487
2453
2426
2467
2466
2460
2479
2502
2500
2521
2471
2493
2494
2472
2477
2456
2452
2401
2469
2485
2509
2489
2514
2475
2468
2496
2494
2511
2514
2485
2530
2505
2491
2475
2426
2440
2456
2509
2506
2498
2523
2519
2474
2525
2508
2508
2513
2501
2471
2475
2431
2463
2443
2449
2473
2478
2488
2459
2476
2487
2522
2483
2518
2503
2506
2484
2483
2467
2427
2449
2481
2476
2478
2485
2478
2502
2520
2518
2476
2488
2481
2456
2449
2456
2448
2489
2429
2464
2482
2463
2391
2483
2533
2502
2500
2498
2500
2481
2508
2477
2480
2447
2460
2464
2493
2512
2489
2516
2509
2494
2511
2505
2497
2488
2485
2480
2482
2469
2404
2425
2480
2479
2480
2485
2508
2526
2525
2478
2479
2501
2510
2503
2476
2473
2461
2478
2465
2451
2448
2473
2499
2484
2500
2526
2493
2528
2478
2502
2489
2503
2458
2462
2473
2457
2490
2473
2473
2508
2485
2473
2519
2508
2507
2503
2476
2461
2466
2498
2490
2437
2460
2466
2490
2482
2502
2492
2475
2503
2515
2504
2497
2491
2481
2464
2462
2464
2479
2477
2475
2474
2472
2472
2463
2478
2503
2510
2511
2481
2496
2486
2478
2483
2453
2449
2455
2475
2465
2489
2482
2511
2510
2470
2488
2489
2488
2476
2454
2488
2488
2500
2477
2501
2505
2492
2498
2500
2485
2487
2513
2531
2480
2479
2481
2467
2485
2474
2434
2459
2433
2477
2487
2483
2457
2495
2504
2535
2499
2495
2496
2485
2501
2496
2509
2493
2472
2482
2487
2529
2465
2486
2468
2489
2487
2474
2495
2490
2471
2467
2457
2433
2467
2446
2474
2490
2480
2441
2497
2457
2469
2451
2502
2519
2492
2514
2496
2469
2428
2397
2393
2462
2481
2497
2522
2486
2458
2481
2527
2518
2516
2502
2483
2480
2466
2464
2487
2484
2493
2466
2489
2493
2489
2512
2485
2482
2481
2505
2488
2470
2446
2454
2451
2448
2462
2477
2484
2459
2491
2488
2492
2466
2528
2508
2504
2491
2483
2463
2451
2470
2481
2480
2475
2497
2456
2486
2481
2471
2491
2478
2479
2457
2478
2477
2453
2471
2501
2495
2483
2498
2501
2506
2496
2494
2498
2517
2520
2506
2496
2515
2499
2462
2477
2465
2454
2479
2480
2483
2479
2504
2479
2460
2495
2485
2491
2505
2475
2487
2493
2449
2454
2473
2457
2479
2486
2514
2482
2507
2472
2502
2511
2511
2485
2474
2455
2456
2467
2440
2466
2471
2496
2448
2462
2465
2520
2531
2523
2509
2468
2523
2495
2489
2471
2435
2440
2452
2484
2498
2476
2448
2459
2476
2514
2476
2503
2493
2492
2489
2467
2430
2443
2470
2472
2480
2475
2480
2472
2473
2463
2458
2491
2513
2498
2481
2488
2471
2422
2438
2449
2482
2475
2467
2459
2459
2478
2485
2489
2502
2499
2502
2484
2491
2481
2486
2468
2476
2481
2491
2488
2508
2509
2487
2490
2493
2509
2503
2488
2505
2395
2449
2431
2478
2469
2474
2482
2520
2477
2503
2477
2482
2503
2513
2522
2497
2485
2456
2442
2427
2500
2466
2465
2471
2447
2464
2523
2474
2519
2480
2480
2491
2482
2522
2479
2438
2453
2441
2477
2473
2469
2470
2452
2471
2488
2500
2503
2459
2486
2480
2445
2422
2457
2509
2464
2472
2490
2491
2490
2489
2500
2527
2532
2525
2512
2507
2474
2481
2491
2431
2433
2459
2464
2502
2465
2420
2513
2505
2517
2498
2498
2501
2467
2445
2465
2479
2438
2471
2475
2492
2492
2492
2504
2488
2454
2489
2516
2493
2494
2481
2442
2455
2458
2439
2473
2466
2482
2479
2490
2490
2483
2506
2547
2518
2496
2505
2493
2500
2488
2447
2425
2457
2492
2473
2479
2502
2493
2471
2483
2512
2507
2507
2472
2473
2449
2432
2410
2420
2431
2441
2477
2488
2485
2459
2462
2509
2502
2542
2511
2513
2543
2496
2487
2486
2441
2474
2486
2477
2459
2462
2445
2443
2424
2520
2519
2517
2522
2522
2482
2469
2440
2487
2476
2469
2483
2487
2467
2467
2504
2472
2484
2496
2513
2525
2486
2500
2484
2498
2436
2458
2480
2500
2490
2495
2497
2490
2483
2495
2502
2526
2490
2495
2463
2437
2437
2467
2475
2484
2485
2450
2461
2500
2521
2496
2512
2505
2493
2493
2472
2487
2489
2462
2481
2484
2474
2470
2487
2467
2457
2454
2504
2462
2480
2497
2488
2462
2431
2469
2485
2471
2483
2474
2501
2516
2523
2506
2483
2470
2492
2515
2482
2503
2467
2453
2428
2450
2460
2460
2469
2445
2441
2476
2487
2498
2497
2491
2500
2520
2498
2497
2467
2507
2506
2480
2487
2498
2500
2501
2476
2503
2488
2500
2499
2503
2498
2482
2471
2480
2479
2477
2465
2475
2460
2491
2460
2447
2504
2518
2490
2504
2504
2498
2479
2484
2481
2478
2491
2432
2477
2479
2486
2491
2489
2522
2496
2499
2507
2484
2496
2482
2479
2486
2461
2461
2471
2487
2481
2478
2503
2498
2453
2485
2506
2506
2496
2515
2502
2473
2420
2452
2475
2480
2483
2470
2469
2455
2458
2486
2512
2511
2501
2525
2478
2481
2476
2523
2480
2458
2470
2477
2479
2466
2483
2483
2507
2474
2467
2450
2459
2469
2483
2426
2498
2479
2470
2500
2485
2484
2539
2522
2510
2525
2498
2481
2473
2484
2476
2455
2469
2464
2466
2479
2459
2503
2503
2500
2511
2508
2481
2491
2500
2535
2498
2493
2489
2466
2433
2474
2486
2487
2485
2506
2457
2481
2495
2504
2516
2508
2473
2443
2463
2475
2436
2423
2458
2462
2479
2491
2491
2496
2509
2471
2470
2486
2496
2490
2488
2449
2468
2470
2445
2430
2456
2460
2464
2458
2459
2499
2529
2488
2519
2521
2503
2500
2486
2461
2453
2461
2478
2473
2483
2486
2489
2492
2474
2491
2521
2503
2506
2503
2497
2499
2471
2465
2457
2468
2481
2480
2481
2473
2499
2526
2538
2490
2433
2455
2513
2510
2494
2482
2428
2438
2499
2484
2472
2430
2464
2486
2517
2510
2509
2505
2500
2505
2508
2489
2436
2445
2441
2490
2501
2477
2489
2470
2481
2484
2510
2492
2496
2498
2477
2478
2449
2442
2465
2460
2477
2476
2472
2465
2475
2494
2496
2498
2511
2497
2495
2469
2477
2478
2470
2523
2471
2482
2478
2466
2443
2476
2476
2537
2506
2526
2514
2503
2509
2450
2467
2443
2457
2478
2491
2489
2498
2470
2469
2478
2486
2484
2506
2497
2499
2471
2471
2456
2475
2456
2498
2476
2484
2459
2474
2510
2520
2504
2503
2504
2487
2481
2482
2476
2465
2442
2491
2484
2473
2490
2483
2473
2449
2484
2468
2465
2492
2498
2510
2493
2481
2469
2501
2475
2480
2502
2496
2506
2471
2517
2478
2501
2513
2513
2508
2502
2502
2468
2414
2429
2493
2487
2493
2497
2461
2503
2519
2546
2488
2507
2504
2487
2483
2489
2495
2484
2494
2501
2468
2484
2454
2490
2497
2534
2508
2535
2491
2480
2480
2496
2471
2463
2406
2421
2470
2483
2496
2487
2470
2475
2543
2530
2503
2517
2492
2464
2426
2478
2455
2513
2486
2490
2483
2474
2507
2505
2501
2516
2506
2503
2496
2454
2481
2500
2473
2439
2455
2470
2494
2484
2490
2500
2494
2525
2493
2513
2480
2493
2478
2450
2422
2496
2553
2498
2479
2492
2489
2490
2490
2475
2500
2527
2505
2507
2497
2481
2483
2466
2450
2473
2431
2464
2457
2467
2465
2458
2441
2435
2493
2483
2481
2514
2518
2510
2495
2460
2468
2453
2471
2478
2483
2459
2467
2499
2528
2527
2521
2504
2494
2483
2485
2483
2480
2484
2492
2484
2482
2475
2477
2455
2454
2516
2526
2513
2503
2481
2493
2499
2493
2448
2460
2483
2467
2476
2474
2478
2495
2493
2534
2516
2507
2514
2495
2478
2482
2462
2496
2481
2471
2476
2478
2497
2452
2474
2503
2544
2516
2507
2506
2507
2504
2496
2489
2447
2442
2495
2485
2486
2505
2464
2502
2491
2497
2484
2516
2521
2504
2502
2458
2453
2463
2480
2461
2474
2477
2441
2447
2457
2485
2509
2511
2506
2503
2513
2470
2451
2458
2480
2489
2506
2500
2517
2460
2517
2519
2562
2554
2504
2510
2524
2463
2488
2471
2478
2478
2472
2479
2463
2472
2486
2475
2505
2521
2485
2491
2510
2505
2495
2491
2463
2407
2433
2470
2472
2476
2477
2490
2477
2498
2499
2529
2535
2508
2508
2502
2465
2455
2427
2481
2456
2456
2472
2454
2450
2488
2503
2512
2502
2497
2496
2514
2472
2516
2486
2446
2452
2470
2488
2497
2494
2502
2502
2493
2449
2466
2490
2482
2457
2476
2461
2425
2473
2485
2492
2475
2460
2481
2490
2514
2552
2540
2507
2514
2486
2504
2494
2488
2474
2467
2463
2474
2477
2516
2485
2448
2474
2481
2493
2477
2499
2500
2480
2463
2483
2399
2456
2470
2489
2485
2491
2474
2474
2515
2496
2519
2496
2481
2482
2484
2496
2491
2455
2432
2481
2479
2508
2487
2496
2470
2487
2499
2546
2492
2495
2484
2483
2506
2450
2417
2422
2469
2471
2480
2495
2466
2440
2474
2464
2483
2533
2532
2504
2513
2512
2459
2426
2487
2480
2480
2494
2489
2456
2484
2519
2477
2493
2516
2501
2490
2473
2460
2449
2454
2479
2474
2489
2486
2488
2502
2483
2482
2502
2500
2487
2483
2482
2494
2457
2489
2485
2468
2445
2474
2485
2497
2430
2488
2486
2478
2496
2479
2493
2462
2478
2482
2500
2441
2503
2506
2498
2475
2514
2503
2499
2505
2496
2518
2511
2468
2497
2460
2472
2468
2497
2489
2487
2490
2524
2467
2484
2473
2482
2492
2501
2500
2495
2498
2489
2467
2438
2453
2471
2487
2487
2500
2461
2481
2459
2474
2491
2502
2507
2491
2492
2479
2505
2476
2461
2495
2490
2490
2498
2479
2495
2474
2531
2454
2486
2502
2486
2499
2471
2415
2414
2425
2489
2472
2481
2499
2476
2468
2493
2538
2513
2513
2493
2539
2465
2504
2498
2511
2470
2509
2479
2484
2489
2462
2487
2461
2496
2513
2501
2493
2499
2462
2462
2461
2480
2482
2480
2480
2486
2462
2522
2554
2540
2498
2509
2498
2496
2460
2470
