13:33:26:232 -> 1928
13:33:26:265 -> 2234
13:33:26:267 -> 1928
13:33:26:267 -> 2236
13:33:26:273 -> 1940
13:33:26:283 -> 2227
13:33:26:293 -> 1923
13:33:26:303 -> 2231
13:33:26:313 -> 1930
13:33:26:323 -> 2226
13:33:26:335 -> 1939
13:33:26:343 -> 2225
13:33:26:353 -> 1935
13:33:26:363 -> 2207
13:33:26:373 -> 1934
13:33:26:383 -> 2209
13:33:26:393 -> 1947
13:33:26:403 -> 2205
13:33:26:413 -> 1935
13:33:26:423 -> 2202
13:33:26:434 -> 1927
13:33:26:443 -> 2201
13:33:26:453 -> 1961
13:33:26:463 -> 2190
13:33:26:473 -> 1960
13:33:26:484 -> 2176
13:33:26:493 -> 1964
13:33:26:503 -> 2177
13:33:26:514 -> 1956
13:33:26:524 -> 2178
13:33:26:534 -> 1962
13:33:26:544 -> 2179
13:33:26:555 -> 1974
13:33:26:564 -> 2169
13:33:26:574 -> 1986
13:33:26:585 -> 2176
13:33:26:595 -> 1978
13:33:26:604 -> 2163
13:33:26:614 -> 1991
13:33:26:624 -> 2172
13:33:26:634 -> 1993
13:33:26:644 -> 2158
13:33:26:654 -> 1993
13:33:26:664 -> 2168
13:33:26:674 -> 2009
13:33:26:684 -> 2167
13:33:26:694 -> 2009
13:33:26:704 -> 2154
13:33:26:715 -> 2003
13:33:26:724 -> 2148
13:33:26:735 -> 2013
13:33:26:744 -> 2146
13:33:26:755 -> 2016
13:33:26:788 -> 2145
13:33:26:789 -> 2029
13:33:26:789 -> 2141
13:33:26:795 -> 2044
13:33:26:805 -> 2135
13:33:26:816 -> 2028
13:33:26:836 -> 2138
13:33:26:836 -> 2037
13:33:26:845 -> 2132
13:33:26:855 -> 2046
13:33:26:865 -> 2137
13:33:26:875 -> 2048
13:33:26:885 -> 2128
13:33:26:895 -> 2063
13:33:26:905 -> 2137
13:33:26:915 -> 2062
13:33:26:925 -> 2098
13:33:26:935 -> 2071
13:33:26:945 -> 2158
13:33:26:955 -> 2091
13:33:26:966 -> 2155
13:33:26:976 -> 1985
13:33:26:986 -> 2137
13:33:26:996 -> 1994
13:33:27:007 -> 2083
13:33:27:016 -> 2155
13:33:27:026 -> 2151
13:33:27:036 -> 2085
13:33:27:046 -> 2161
13:33:27:056 -> 2135
13:33:27:066 -> 2069
13:33:27:076 -> 2150
13:33:27:086 -> 2078
13:33:27:096 -> 2020
13:33:27:106 -> 2048
13:33:27:116 -> 2136
13:33:27:126 -> 2021
13:33:27:136 -> 1907
13:33:27:147 -> 2119
13:33:27:156 -> 2107
13:33:27:166 -> 1962
13:33:27:176 -> 2201
13:33:27:186 -> 2012
13:33:27:197 -> 2029
13:33:27:207 -> 2188
13:33:27:218 -> 2065
13:33:27:227 -> 2168
13:33:27:238 -> 1925
13:33:27:247 -> 2265
13:33:27:257 -> 2331
13:33:27:267 -> 1754
13:33:27:316 -> 2149
13:33:27:318 -> 2245
13:33:27:318 -> 1821
13:33:27:318 -> 2134
13:33:27:318 -> 2095
13:33:27:327 -> 2185
13:33:27:344 -> 2074
13:33:27:347 -> 2408
13:33:27:358 -> 2443
13:33:27:368 -> 2233
13:33:27:377 -> 1981
13:33:27:388 -> 2143
13:33:27:397 -> 2334
13:33:27:408 -> 2053
13:33:27:418 -> 2676
13:33:27:428 -> 1684
13:33:27:438 -> 2010
13:33:27:448 -> 2175
13:33:27:477 -> 2205
13:33:27:487 -> 1819
13:33:27:487 -> 2310
13:33:27:490 -> 2061
13:33:27:534 -> 1862
13:33:27:534 -> 1554
13:33:27:534 -> 2389
13:33:27:534 -> 1915
13:33:27:572 -> 1860
13:33:27:572 -> 2348
13:33:27:572 -> 2219
13:33:27:572 -> 2341
13:33:27:603 -> 2236
13:33:27:603 -> 2028
13:33:27:603 -> 1716
13:33:27:611 -> 2386
13:33:27:640 -> 2216
13:33:27:640 -> 2125
13:33:27:640 -> 2300
13:33:27:649 -> 1843
13:33:27:659 -> 2130
13:33:27:669 -> 2240
13:33:27:679 -> 2017
13:33:27:702 -> 2152
13:33:27:702 -> 2314
13:33:27:709 -> 2129
13:33:27:719 -> 2240
13:33:27:729 -> 1936
13:33:27:739 -> 2314
13:33:27:749 -> 2020
13:33:27:766 -> 2076
13:33:27:769 -> 2201
13:33:27:779 -> 2150
13:33:27:790 -> 2360
13:33:27:799 -> 2205
13:33:27:809 -> 2286
13:33:27:853 -> 2090
13:33:27:857 -> 1841
13:33:27:857 -> 2188
13:33:27:857 -> 2105
13:33:27:860 -> 2099
13:33:27:870 -> 2202
13:33:27:880 -> 1955
13:33:27:890 -> 2164
13:33:27:900 -> 2042
13:33:27:910 -> 1969
13:33:27:920 -> 2215
13:33:27:930 -> 1902
13:33:27:940 -> 2071
13:33:27:950 -> 1895
13:33:27:960 -> 2001
13:33:27:970 -> 2013
13:33:27:980 -> 2235
13:33:27:990 -> 1559
13:33:28:000 -> 2004
13:33:28:015 -> 1793
13:33:28:022 -> 2301
13:33:28:030 -> 1768
13:33:28:040 -> 2143
13:33:28:053 -> 1968
13:33:28:060 -> 2193
13:33:28:071 -> 2078
13:33:28:081 -> 2077
13:33:28:091 -> 1942
13:33:28:101 -> 2374
13:33:28:111 -> 2010
13:33:28:121 -> 2113
13:33:28:131 -> 1832
13:33:28:141 -> 2295
13:33:28:151 -> 1754
13:33:28:161 -> 2156
13:33:28:171 -> 1981
13:33:28:181 -> 2045
13:33:28:191 -> 1934
13:33:28:201 -> 2245
13:33:28:211 -> 1745
13:33:28:221 -> 2263
13:33:28:231 -> 1690
13:33:28:241 -> 2375
13:33:28:252 -> 1788
13:33:28:261 -> 2237
13:33:28:271 -> 2080
13:33:28:281 -> 2281
13:33:28:292 -> 1801
13:33:28:302 -> 2240
13:33:28:312 -> 1675
13:33:28:322 -> 2417
13:33:28:332 -> 1817
13:33:28:342 -> 2412
13:33:28:352 -> 1933
13:33:28:379 -> 1944
13:33:28:381 -> 1892
13:33:28:382 -> 2108
13:33:28:392 -> 1995
13:33:28:402 -> 2363
13:33:28:412 -> 1951
13:33:28:422 -> 2220
13:33:28:432 -> 1834
13:33:28:442 -> 2150
13:33:28:452 -> 2000
13:33:28:462 -> 2097
13:33:28:480 -> 1707
13:33:28:482 -> 2387
13:33:28:493 -> 1925
13:33:28:503 -> 2306
13:33:28:513 -> 1808
13:33:28:524 -> 2147
13:33:28:533 -> 1887
13:33:28:543 -> 2252
13:33:28:553 -> 1956
13:33:28:563 -> 2182
13:33:28:573 -> 1973
13:33:28:583 -> 2147
13:33:28:593 -> 1953
13:33:28:603 -> 2189
13:33:28:613 -> 1876
13:33:28:623 -> 2162
13:33:28:633 -> 1912
13:33:28:643 -> 2158
13:33:28:660 -> 1958
13:33:28:667 -> 2153
13:33:28:673 -> 1951
13:33:28:683 -> 2147
13:33:28:693 -> 1972
13:33:28:703 -> 2151
13:33:28:713 -> 1984
13:33:28:723 -> 2156
13:33:28:734 -> 1998
13:33:28:744 -> 2141
13:33:28:754 -> 2024
13:33:28:764 -> 2128
13:33:28:774 -> 2022
13:33:28:784 -> 2136
13:33:28:804 -> 2128
13:33:28:814 -> 2014
13:33:28:794 -> 2029
13:33:28:824 -> 2137
13:33:28:835 -> 2061
13:33:28:844 -> 2159
13:33:28:854 -> 2040
13:33:28:864 -> 2145
13:33:28:874 -> 2056
13:33:28:923 -> 2146
13:33:28:924 -> 2050
13:33:28:924 -> 2150
13:33:28:924 -> 2058
13:33:28:927 -> 2141
13:33:28:935 -> 2048
13:33:28:945 -> 2142
13:33:28:955 -> 2064
13:33:28:975 -> 2148
13:33:29:004 -> 2051
13:33:29:004 -> 2135
13:33:29:004 -> 2066
13:33:29:027 -> 2134
13:33:29:027 -> 2062
13:33:29:027 -> 2121
13:33:29:066 -> 2073
13:33:29:066 -> 2117
13:33:29:066 -> 2070
13:33:29:066 -> 2119
13:33:29:075 -> 2073
13:33:29:106 -> 2108
13:33:29:106 -> 2062
13:33:29:106 -> 2099
13:33:29:115 -> 2080
13:33:29:125 -> 2093
13:33:29:135 -> 2065
13:33:29:145 -> 2079
13:33:29:155 -> 2079
13:33:29:166 -> 2077
13:33:29:175 -> 2070
13:33:29:186 -> 2063
13:33:29:199 -> 2062
13:33:29:206 -> 2065
13:33:29:216 -> 2070
13:33:29:226 -> 2042
13:33:29:236 -> 2070
13:33:29:247 -> 2051
13:33:29:256 -> 2064
13:33:29:289 -> 2045
13:33:29:289 -> 2073
13:33:29:289 -> 2042
13:33:29:299 -> 2078
13:33:29:306 -> 2047
13:33:29:316 -> 2077
13:33:29:326 -> 2043
13:33:29:336 -> 2079
13:33:29:346 -> 2056
13:33:29:356 -> 2083
13:33:29:367 -> 2056
13:33:29:376 -> 2100
13:33:29:387 -> 2033
13:33:29:396 -> 2128
13:33:29:406 -> 2007
13:33:29:417 -> 2139
13:33:29:463 -> 1992
13:33:29:471 -> 2146
13:33:29:471 -> 1983
13:33:29:471 -> 2144
13:33:29:471 -> 1998
13:33:29:478 -> 2136
13:33:29:487 -> 1996
13:33:29:497 -> 2136
13:33:29:507 -> 2032
13:33:29:517 -> 2114
13:33:29:527 -> 2046
13:33:29:542 -> 2113
13:33:29:547 -> 2063
13:33:29:557 -> 2100
13:33:29:570 -> 2084
13:33:29:578 -> 2088
13:33:29:587 -> 2080
13:33:29:597 -> 2097
13:33:29:608 -> 2086
13:33:29:619 -> 2108
13:33:29:627 -> 2094
13:33:29:637 -> 2090
13:33:29:648 -> 2076
13:33:29:658 -> 2109
13:33:29:668 -> 2087
13:33:29:678 -> 2109
13:33:29:688 -> 2085
13:33:29:698 -> 2093
13:33:29:708 -> 2081
13:33:29:718 -> 2103
13:33:29:728 -> 2087
13:33:29:738 -> 2104
13:33:29:748 -> 2077
13:33:29:758 -> 2121
13:33:29:768 -> 2059
13:33:29:778 -> 2139
13:33:29:788 -> 2047
13:33:29:798 -> 2136
13:33:29:808 -> 2039
13:33:29:819 -> 2131
13:33:29:828 -> 2038
13:33:29:838 -> 2110
13:33:29:853 -> 2042
13:33:29:859 -> 2109
13:33:29:869 -> 2049
13:33:29:879 -> 2099
13:33:29:889 -> 2057
13:33:29:899 -> 2095
13:33:29:909 -> 2066
13:33:29:920 -> 2104
13:33:29:929 -> 2056
13:33:29:939 -> 2116
13:33:29:949 -> 2055
13:33:29:959 -> 2128
13:33:29:991 -> 2039
13:33:29:992 -> 2139
13:33:29:992 -> 2029
13:33:29:999 -> 2138
13:33:30:009 -> 2011
13:33:30:019 -> 2158
13:33:30:029 -> 2008
13:33:30:039 -> 2156
13:33:30:051 -> 2005
13:33:30:059 -> 2151
13:33:30:069 -> 1992
13:33:30:080 -> 2160
13:33:30:090 -> 1986
13:33:30:102 -> 2155
13:33:30:110 -> 1980
13:33:30:120 -> 2157
13:33:30:130 -> 1965
13:33:30:140 -> 2163
13:33:30:150 -> 1970
13:33:30:163 -> 2149
13:33:30:170 -> 1997
13:33:30:180 -> 2174
13:33:30:191 -> 1985
13:33:30:201 -> 2141
13:33:30:210 -> 2017
13:33:30:220 -> 2160
13:33:30:230 -> 1956
13:33:30:240 -> 2308
13:33:30:251 -> 2049
13:33:30:260 -> 2338
13:33:30:271 -> 1908
13:33:30:280 -> 2188
13:33:30:290 -> 1990
13:33:30:301 -> 2130
13:33:30:311 -> 1950
13:33:30:321 -> 2261
13:33:30:331 -> 1900
13:33:30:341 -> 2187
13:33:30:351 -> 2132
13:33:30:361 -> 2262
13:33:30:371 -> 2037
13:33:30:381 -> 2214
13:33:30:391 -> 1905
13:33:30:401 -> 2307
13:33:30:411 -> 1998
13:33:30:424 -> 2441
13:33:30:431 -> 1907
13:33:30:442 -> 2445
13:33:30:451 -> 2211
13:33:30:461 -> 2124
13:33:30:471 -> 1987
13:33:30:481 -> 2497
13:33:30:516 -> 1956
13:33:30:520 -> 2176
13:33:30:520 -> 1952
13:33:30:522 -> 2012
13:33:30:532 -> 2325
13:33:30:542 -> 2143
13:33:30:552 -> 1815
13:33:30:562 -> 2042
13:33:30:572 -> 1659
13:33:30:582 -> 2575
13:33:30:592 -> 2067
13:33:30:602 -> 2305
13:33:30:612 -> 1856
13:33:30:622 -> 2604
13:33:30:632 -> 1811
13:33:30:642 -> 2154
13:33:30:652 -> 1539
13:33:30:662 -> 2110
13:33:30:672 -> 1703
13:33:30:685 -> 2162
13:33:30:693 -> 1627
13:33:30:702 -> 1924
13:33:30:712 -> 1583
13:33:30:722 -> 1949
13:33:30:732 -> 1447
13:33:30:742 -> 2026
13:33:30:753 -> 2049
13:33:30:763 -> 2312
13:33:30:773 -> 1764
13:33:30:783 -> 2142
13:33:30:793 -> 2216
13:33:30:803 -> 1915
13:33:30:813 -> 2106
13:33:30:823 -> 2257
13:33:30:834 -> 1994
13:33:30:843 -> 2223
13:33:30:853 -> 1825
13:33:30:865 -> 2099
13:33:30:874 -> 1991
13:33:30:883 -> 2049
13:33:30:893 -> 1897
13:33:30:903 -> 2408
13:33:30:920 -> 2137
13:33:30:937 -> 2281
13:33:30:937 -> 2700
13:33:30:961 -> 2238
13:33:30:961 -> 2162
13:33:30:982 -> 1940
13:33:30:982 -> 2067
13:33:31:010 -> 1997
13:33:31:010 -> 1932
13:33:31:043 -> 1851
13:33:31:043 -> 1979
13:33:31:043 -> 2226
13:33:31:049 -> 2131
13:33:31:049 -> 2111
13:33:31:054 -> 1968
13:33:31:064 -> 2223
13:33:31:074 -> 2239
13:33:31:084 -> 1813
13:33:31:094 -> 2067
13:33:31:104 -> 2119
13:33:31:114 -> 2175
13:33:31:124 -> 2184
13:33:31:135 -> 2070
13:33:31:144 -> 2092
13:33:31:155 -> 1994
13:33:31:164 -> 2233
13:33:31:175 -> 2048
13:33:31:184 -> 2197
13:33:31:201 -> 2290
13:33:31:215 -> 2188
13:33:31:215 -> 2141
13:33:31:225 -> 2043
13:33:31:235 -> 1974
13:33:31:245 -> 2232
13:33:31:255 -> 1728
13:33:31:265 -> 2259
13:33:31:275 -> 1900
13:33:31:285 -> 2249
13:33:31:295 -> 2201
13:33:31:305 -> 2104
13:33:31:315 -> 2175
13:33:31:325 -> 1862
13:33:31:336 -> 2047
13:33:31:345 -> 2412
13:33:31:355 -> 2107
13:33:31:365 -> 1785
13:33:31:375 -> 2043
13:33:31:386 -> 2193
13:33:31:405 -> 1950
13:33:31:409 -> 2152
13:33:31:416 -> 1754
13:33:31:426 -> 2210
13:33:31:436 -> 2043
13:33:31:448 -> 1993
13:33:31:456 -> 1995
13:33:31:466 -> 1796
13:33:31:476 -> 2002
13:33:31:486 -> 2150
13:33:31:496 -> 1940
13:33:31:506 -> 2062
13:33:31:516 -> 2108
13:33:31:526 -> 2073
13:33:31:536 -> 2207
13:33:31:571 -> 1843
13:33:31:572 -> 2021
13:33:31:572 -> 1723
13:33:31:576 -> 2080
13:33:31:586 -> 1857
13:33:31:596 -> 1606
13:33:31:606 -> 2014
13:33:31:619 -> 2109
13:33:31:626 -> 2114
13:33:31:637 -> 2047
13:33:31:647 -> 1991
13:33:31:657 -> 2283
13:33:31:667 -> 1857
13:33:31:679 -> 2209
13:33:31:687 -> 2055
13:33:31:697 -> 1853
13:33:31:707 -> 2194
13:33:31:718 -> 2014
13:33:31:727 -> 2194
13:33:31:737 -> 1936
13:33:31:747 -> 1790
13:33:31:757 -> 1919
13:33:31:767 -> 2077
13:33:31:777 -> 2158
13:33:31:787 -> 2049
13:33:31:797 -> 1994
13:33:31:807 -> 2116
13:33:31:818 -> 2012
13:33:31:827 -> 2212
13:33:31:838 -> 2054
13:33:31:847 -> 2074
13:33:31:857 -> 2035
13:33:31:868 -> 2007
13:33:31:878 -> 2058
13:33:31:893 -> 2107
13:33:31:898 -> 2151
13:33:31:908 -> 2092
13:33:31:920 -> 2111
13:33:31:928 -> 2064
13:33:31:938 -> 2149
13:33:31:948 -> 2038
13:33:31:958 -> 2143
13:33:31:968 -> 2049
13:33:31:978 -> 2098
13:33:31:988 -> 2073
13:33:31:998 -> 2122
13:33:32:008 -> 2027
13:33:32:018 -> 2126
13:33:32:028 -> 2054
13:33:32:038 -> 2130
13:33:32:052 -> 2025
13:33:32:060 -> 2126
13:33:32:069 -> 1986
13:33:32:108 -> 2139
13:33:32:109 -> 1998
13:33:32:109 -> 2158
13:33:32:109 -> 2009
13:33:32:120 -> 2156
13:33:32:129 -> 1998
13:33:32:139 -> 2146
13:33:32:149 -> 1985
13:33:32:159 -> 2150
13:33:32:170 -> 1973
13:33:32:179 -> 2149
13:33:32:189 -> 1969
13:33:32:199 -> 2153
13:33:32:210 -> 1983
13:33:32:219 -> 2170
13:33:32:229 -> 1971
13:33:32:239 -> 2160
13:33:32:249 -> 1971
13:33:32:259 -> 2147
13:33:32:269 -> 1983
13:33:32:279 -> 2144
13:33:32:289 -> 1979
13:33:32:300 -> 2161
13:33:32:313 -> 1976
13:33:32:322 -> 2164
13:33:32:330 -> 1971
13:33:32:340 -> 2170
13:33:32:350 -> 1968
13:33:32:360 -> 2163
13:33:32:370 -> 1973
13:33:32:380 -> 2186
13:33:32:390 -> 1957
13:33:32:400 -> 2199
13:33:32:410 -> 1954
13:33:32:424 -> 2213
13:33:32:430 -> 1940
13:33:32:440 -> 2239
13:33:32:450 -> 1927
13:33:32:460 -> 2244
13:33:32:489 -> 1934
13:33:32:503 -> 2244
13:33:32:503 -> 1937
13:33:32:503 -> 2242
13:33:32:541 -> 1952
13:33:32:541 -> 2239
13:33:32:541 -> 1950
13:33:32:541 -> 2240
13:33:32:552 -> 1947
13:33:32:589 -> 2247
13:33:32:589 -> 1969
13:33:32:589 -> 2240
13:33:32:591 -> 1965
13:33:32:601 -> 2256
13:33:32:634 -> 1970
13:33:32:636 -> 2230
13:33:32:636 -> 1965
13:33:32:641 -> 2220
13:33:32:651 -> 1970
13:33:32:661 -> 2201
13:33:32:671 -> 1962
13:33:32:681 -> 2197
13:33:32:691 -> 1972
13:33:32:702 -> 2183
13:33:32:711 -> 1960
13:33:32:722 -> 2169
13:33:32:732 -> 1961
13:33:32:754 -> 2165
13:33:32:761 -> 1960
13:33:32:771 -> 2166
13:33:32:783 -> 1958
13:33:32:783 -> 2153
13:33:32:792 -> 1983
13:33:32:802 -> 2156
13:33:32:813 -> 1961
13:33:32:822 -> 2146
13:33:32:832 -> 1974
13:33:32:842 -> 2145
13:33:32:852 -> 1956
13:33:32:862 -> 2138
13:33:32:872 -> 1973
13:33:32:882 -> 2136
13:33:32:892 -> 1971
13:33:32:902 -> 2128
13:33:32:912 -> 1988
13:33:32:922 -> 2122
13:33:32:932 -> 1986
13:33:32:942 -> 2122
13:33:32:952 -> 1985
13:33:32:962 -> 2102
13:33:32:978 -> 1997
13:33:32:983 -> 2094
13:33:32:993 -> 1969
13:33:33:003 -> 2094
13:33:33:013 -> 1995
13:33:33:024 -> 2104
13:33:33:033 -> 2014
13:33:33:043 -> 2098
13:33:33:053 -> 2027
13:33:33:063 -> 2107
13:33:33:073 -> 2030
13:33:33:083 -> 2109
13:33:33:093 -> 2043
13:33:33:103 -> 2118
13:33:33:113 -> 2054
13:33:33:123 -> 2110
13:33:33:133 -> 2050
13:33:33:165 -> 2123
13:33:33:166 -> 2059
13:33:33:166 -> 2124
13:33:33:174 -> 2061
13:33:33:183 -> 2108
13:33:33:194 -> 2060
13:33:33:204 -> 2107
13:33:33:215 -> 2062
13:33:33:226 -> 2109
13:33:33:235 -> 2079
13:33:33:244 -> 2107
13:33:33:254 -> 2080
13:33:33:264 -> 2111
13:33:33:274 -> 2085
13:33:33:284 -> 2101
13:33:33:294 -> 2082
13:33:33:304 -> 2109
13:33:33:314 -> 2090
13:33:33:324 -> 2100
13:33:33:334 -> 2089
13:33:33:344 -> 2091
13:33:33:354 -> 2075
13:33:33:364 -> 2088
13:33:33:374 -> 2087
13:33:33:384 -> 2090
13:33:33:394 -> 2091
13:33:33:404 -> 2072
13:33:33:414 -> 2087
13:33:33:425 -> 2093
13:33:33:435 -> 2087
13:33:33:445 -> 2076
13:33:33:455 -> 2088
13:33:33:465 -> 2080
13:33:33:475 -> 2074
13:33:33:485 -> 2085
13:33:33:495 -> 2080
13:33:33:508 -> 2067
13:33:33:515 -> 2074
13:33:33:525 -> 2082
13:33:33:535 -> 2051
13:33:33:545 -> 2071
13:33:33:555 -> 2059
13:33:33:565 -> 2074
13:33:33:575 -> 2122
13:33:33:585 -> 1930
13:33:33:595 -> 2159
13:33:33:605 -> 1971
13:33:33:615 -> 2097
13:33:33:625 -> 1805
13:33:33:635 -> 2233
13:33:33:645 -> 2104
13:33:33:656 -> 2074
13:33:33:694 -> 1980
13:33:33:695 -> 2163
13:33:33:695 -> 1894
13:33:33:696 -> 2137
13:33:33:706 -> 1862
13:33:33:722 -> 2150
13:33:33:726 -> 2071
13:33:33:736 -> 2015
13:33:33:746 -> 1955
13:33:33:756 -> 2031
13:33:33:766 -> 2095
13:33:33:776 -> 1883
13:33:33:786 -> 2110
13:33:33:796 -> 2181
13:33:33:806 -> 1926
13:33:33:816 -> 2352
13:33:33:826 -> 1920
13:33:33:836 -> 1705
13:33:33:846 -> 2615
13:33:33:857 -> 2158
13:33:33:868 -> 2435
13:33:33:877 -> 1868
13:33:33:887 -> 2105
13:33:33:897 -> 2150
13:33:33:907 -> 1904
13:33:33:917 -> 2349
13:33:33:927 -> 1621
13:33:33:937 -> 2679
13:33:33:947 -> 2462
13:33:33:957 -> 2015
13:33:33:967 -> 2060
13:33:33:989 -> 2057
13:33:33:990 -> 2101
13:33:33:997 -> 2624
13:33:34:007 -> 1984
13:33:34:019 -> 2386
13:33:34:028 -> 2118
13:33:34:037 -> 2463
13:33:34:047 -> 2044
13:33:34:057 -> 2157
13:33:34:068 -> 2150
13:33:34:077 -> 1890
13:33:34:089 -> 2131
13:33:34:098 -> 2322
13:33:34:108 -> 2232
13:33:34:119 -> 2168
13:33:34:128 -> 1695
13:33:34:138 -> 1996
13:33:34:148 -> 2305
13:33:34:158 -> 2233
13:33:34:168 -> 1908
13:33:34:178 -> 1819
13:33:34:188 -> 1981
13:33:34:222 -> 2014
13:33:34:223 -> 1808
13:33:34:223 -> 1900
13:33:34:228 -> 2188
13:33:34:243 -> 2308
13:33:34:248 -> 2292
13:33:34:258 -> 2047
13:33:34:269 -> 2495
13:33:34:278 -> 2136
13:33:34:288 -> 1915
13:33:34:298 -> 1982
13:33:34:308 -> 1879
13:33:34:319 -> 2314
13:33:34:329 -> 2075
13:33:34:340 -> 2030
13:33:34:349 -> 2132
13:33:34:376 -> 2163
13:33:34:376 -> 1913
13:33:34:385 -> 2142
13:33:34:412 -> 1822
13:33:34:412 -> 2009
13:33:34:412 -> 1986
13:33:34:419 -> 2230
13:33:34:429 -> 2008
13:33:34:450 -> 2172
13:33:34:450 -> 1594
13:33:34:459 -> 2534
13:33:34:469 -> 1792
13:33:34:479 -> 2177
13:33:34:489 -> 1800
13:33:34:499 -> 2100
13:33:34:509 -> 2149
13:33:34:519 -> 2140
13:33:34:530 -> 2002
13:33:34:542 -> 2212
13:33:34:550 -> 1883
13:33:34:560 -> 2048
13:33:34:570 -> 1862
13:33:34:580 -> 2225
13:33:34:590 -> 1994
13:33:34:601 -> 2361
13:33:34:610 -> 2024
13:33:34:620 -> 2423
13:33:34:630 -> 1990
13:33:34:640 -> 2312
13:33:34:651 -> 1966
13:33:34:660 -> 1997
13:33:34:670 -> 2174
13:33:34:680 -> 2112
13:33:34:690 -> 1881
13:33:34:700 -> 1937
13:33:34:710 -> 1963
13:33:34:720 -> 2357
13:33:34:752 -> 1878
13:33:34:756 -> 2284
13:33:34:756 -> 1752
13:33:34:761 -> 2258
13:33:34:771 -> 1673
13:33:34:781 -> 2394
13:33:34:791 -> 2212
13:33:34:801 -> 1974
13:33:34:811 -> 2090
13:33:34:821 -> 2160
13:33:34:831 -> 1649
13:33:34:841 -> 2375
13:33:34:851 -> 1948
13:33:34:861 -> 1982
13:33:34:871 -> 1954
13:33:34:881 -> 2157
13:33:34:891 -> 2177
13:33:34:901 -> 2250
13:33:34:911 -> 2084
13:33:34:921 -> 2005
13:33:34:931 -> 1874
13:33:34:941 -> 2170
13:33:34:951 -> 2075
13:33:34:961 -> 2306
13:33:34:971 -> 1912
13:33:34:981 -> 2258
13:33:34:991 -> 1932
13:33:35:002 -> 2068
13:33:35:012 -> 1987
13:33:35:022 -> 2093
13:33:35:032 -> 2159
13:33:35:043 -> 2089
13:33:35:052 -> 1811
13:33:35:062 -> 2066
13:33:35:072 -> 2321
13:33:35:083 -> 1937
13:33:35:092 -> 1910
13:33:35:102 -> 2347
13:33:35:112 -> 1846
13:33:35:122 -> 2175
13:33:35:140 -> 2203
13:33:35:142 -> 2232
13:33:35:152 -> 1989
13:33:35:162 -> 1974
13:33:35:172 -> 2007
13:33:35:182 -> 1853
13:33:35:192 -> 2062
13:33:35:202 -> 2031
13:33:35:212 -> 1987
13:33:35:223 -> 2143
13:33:35:233 -> 2072
13:33:35:243 -> 2090
13:33:35:276 -> 2083
13:33:35:277 -> 2178
13:33:35:277 -> 2046
13:33:35:283 -> 2167
13:33:35:293 -> 2038
13:33:35:303 -> 2143
13:33:35:314 -> 2072
13:33:35:323 -> 2135
13:33:35:334 -> 2055
13:33:35:343 -> 2088
13:33:35:359 -> 2094
13:33:35:366 -> 2079
13:33:35:373 -> 2090
13:33:35:383 -> 2118
13:33:35:393 -> 2074
13:33:35:403 -> 2104
13:33:35:414 -> 2079
13:33:35:423 -> 2064
13:33:35:434 -> 2110
13:33:35:444 -> 2096
13:33:35:454 -> 2074
13:33:35:464 -> 2081
13:33:35:474 -> 2063
13:33:35:484 -> 2084
13:33:35:494 -> 2086
13:33:35:504 -> 2075
13:33:35:514 -> 2083
13:33:35:524 -> 2077
13:33:35:541 -> 2083
13:33:35:544 -> 2067
13:33:35:554 -> 2080
13:33:35:564 -> 2071
13:33:35:574 -> 2087
13:33:35:584 -> 2061
13:33:35:594 -> 2095
13:33:35:604 -> 2057
13:33:35:614 -> 2093
13:33:35:624 -> 2063
13:33:35:636 -> 2097
13:33:35:644 -> 2068
13:33:35:654 -> 2101
13:33:35:665 -> 2054
13:33:35:675 -> 2099
13:33:35:685 -> 2070
13:33:35:695 -> 2099
13:33:35:705 -> 2044
13:33:35:724 -> 2126
13:33:35:726 -> 2026
13:33:35:736 -> 2155
13:33:35:745 -> 2010
13:33:35:755 -> 2151
13:33:35:765 -> 2010
13:33:35:775 -> 2147
13:33:35:800 -> 2014
13:33:35:803 -> 2134
13:33:35:808 -> 2021
13:33:35:815 -> 2132
13:33:35:825 -> 2033
13:33:35:835 -> 2110
13:33:35:846 -> 2050
13:33:35:855 -> 2112
13:33:35:866 -> 2068
13:33:35:891 -> 2088
13:33:35:901 -> 2072
13:33:35:901 -> 2098
13:33:35:931 -> 2070
13:33:35:931 -> 2077
13:33:35:931 -> 2074
13:33:35:936 -> 2086
13:33:35:946 -> 2078
13:33:35:956 -> 2094
13:33:35:976 -> 2076
13:33:35:976 -> 2107
13:33:35:986 -> 2091
13:33:35:997 -> 2093
13:33:36:006 -> 2087
13:33:36:016 -> 2086
13:33:36:026 -> 2082
13:33:36:036 -> 2086
13:33:36:046 -> 2082
13:33:36:056 -> 2085
13:33:36:067 -> 2073
13:33:36:077 -> 2106
13:33:36:086 -> 2052
13:33:36:096 -> 2116
13:33:36:107 -> 2038
13:33:36:118 -> 2130
13:33:36:127 -> 2037
13:33:36:137 -> 2125
13:33:36:147 -> 2038
13:33:36:157 -> 2117
13:33:36:167 -> 2048
13:33:36:177 -> 2100
13:33:36:187 -> 2036
13:33:36:197 -> 2093
13:33:36:207 -> 2049
13:33:36:218 -> 2089
13:33:36:227 -> 2047
13:33:36:239 -> 2106
13:33:36:247 -> 2059
13:33:36:257 -> 2101
13:33:36:267 -> 2043
13:33:36:277 -> 2118
13:33:36:287 -> 2037
13:33:36:297 -> 2124
13:33:36:331 -> 2027
13:33:36:333 -> 2140
13:33:36:333 -> 2020
13:33:36:338 -> 2145
13:33:36:348 -> 2015
13:33:36:358 -> 2156
13:33:36:368 -> 2004
13:33:36:378 -> 2165
13:33:36:388 -> 2000
13:33:36:398 -> 2163
13:33:36:408 -> 1992
13:33:36:418 -> 2185
13:33:36:428 -> 1990
13:33:36:438 -> 2186
13:33:36:448 -> 1983
13:33:36:458 -> 2182
13:33:36:468 -> 1972
13:33:36:478 -> 2178
13:33:36:488 -> 1978
13:33:36:498 -> 2170
13:33:36:508 -> 1978
13:33:36:518 -> 2167
13:33:36:528 -> 1963
13:33:36:539 -> 2175
13:33:36:549 -> 1962
13:33:36:559 -> 2176
13:33:36:579 -> 1958
13:33:36:580 -> 2181
13:33:36:590 -> 1949
13:33:36:599 -> 2210
13:33:36:609 -> 1943
13:33:36:619 -> 2225
13:33:36:630 -> 1927
13:33:36:639 -> 2213
13:33:36:652 -> 1933
13:33:36:659 -> 2224
13:33:36:669 -> 1936
13:33:36:679 -> 2212
13:33:36:689 -> 1919
13:33:36:699 -> 2228
13:33:36:709 -> 1941
13:33:36:719 -> 2244
13:33:36:729 -> 1929
13:33:36:739 -> 2242
13:33:36:749 -> 1949
13:33:36:759 -> 2235
13:33:36:771 -> 1952
13:33:36:780 -> 2236
13:33:36:791 -> 1944
13:33:36:800 -> 2236
13:33:36:815 -> 1950
13:33:36:820 -> 2215
13:33:36:853 -> 1928
13:33:36:855 -> 2249
13:33:36:855 -> 1924
13:33:36:860 -> 2231
13:33:36:870 -> 1886
13:33:36:880 -> 2210
13:33:36:890 -> 1894
13:33:36:900 -> 2239
13:33:36:910 -> 1989
13:33:36:920 -> 2154
13:33:36:930 -> 2021
13:33:36:940 -> 2137
13:33:36:951 -> 1873
13:33:36:960 -> 1996
13:33:36:970 -> 1981
13:33:36:980 -> 2160
13:33:36:990 -> 1960
13:33:37:002 -> 2095
13:33:37:011 -> 1877
13:33:37:021 -> 2203
13:33:37:042 -> 1927
13:33:37:044 -> 2189
13:33:37:051 -> 1967
13:33:37:061 -> 2112
13:33:37:071 -> 1858
13:33:37:081 -> 2001
13:33:37:091 -> 1814
13:33:37:101 -> 2107
13:33:37:111 -> 1525
13:33:37:121 -> 1763
13:33:37:131 -> 2276
13:33:37:141 -> 2503
13:33:37:151 -> 2211
13:33:37:162 -> 1567
13:33:37:171 -> 1979
13:33:37:181 -> 2471
13:33:37:191 -> 1730
13:33:37:201 -> 2195
13:33:37:212 -> 2082
13:33:37:222 -> 2180
13:33:37:231 -> 1920
13:33:37:242 -> 2114
13:33:37:252 -> 1968
13:33:37:262 -> 2059
13:33:37:275 -> 2015
13:33:37:283 -> 2259
13:33:37:293 -> 2125
13:33:37:302 -> 2087
13:33:37:312 -> 2125
13:33:37:322 -> 2296
13:33:37:332 -> 2162
13:33:37:342 -> 2418
13:33:37:372 -> 2394
13:33:37:373 -> 1794
13:33:37:373 -> 1539
13:33:37:382 -> 2004
13:33:37:392 -> 1840
13:33:37:402 -> 2377
13:33:37:412 -> 2226
13:33:37:423 -> 2166
13:33:37:432 -> 2196
13:33:37:442 -> 1960
13:33:37:476 -> 2541
13:33:37:476 -> 2027
13:33:37:476 -> 2010
13:33:37:484 -> 2541
13:33:37:505 -> 2040
13:33:37:505 -> 2105
13:33:37:513 -> 2133
13:33:37:523 -> 2163
13:33:37:540 -> 1889
13:33:37:547 -> 2021
13:33:37:553 -> 1879
13:33:37:563 -> 1994
13:33:37:573 -> 2432
13:33:37:583 -> 2183
13:33:37:593 -> 2151
13:33:37:607 -> 2336
13:33:37:613 -> 1818
13:33:37:623 -> 1688
13:33:37:633 -> 1710
13:33:37:643 -> 2149
13:33:37:654 -> 2378
13:33:37:663 -> 1759
13:33:37:680 -> 2013
13:33:37:684 -> 2394
13:33:37:694 -> 2146
13:33:37:704 -> 2096
13:33:37:714 -> 1817
13:33:37:724 -> 2021
13:33:37:734 -> 2052
13:33:37:744 -> 2225
13:33:37:754 -> 2228
13:33:37:764 -> 1755
13:33:37:774 -> 2087
13:33:37:784 -> 1960
13:33:37:794 -> 2150
13:33:37:804 -> 1950
13:33:37:814 -> 1970
13:33:37:824 -> 2114
13:33:37:834 -> 2252
13:33:37:846 -> 2029
13:33:37:854 -> 2277
13:33:37:864 -> 2065
13:33:37:896 -> 2216
13:33:37:899 -> 2252
13:33:37:899 -> 1974
13:33:37:908 -> 2110
13:33:37:915 -> 2323
13:33:37:925 -> 2065
13:33:37:936 -> 2288
13:33:37:945 -> 1950
13:33:37:955 -> 2043
13:33:37:965 -> 2257
13:33:37:975 -> 1955
13:33:37:985 -> 1712
13:33:37:995 -> 2134
13:33:38:005 -> 2115
13:33:38:015 -> 2060
13:33:38:025 -> 1950
13:33:38:035 -> 2099
13:33:38:045 -> 2120
13:33:38:055 -> 2555
13:33:38:070 -> 2012
13:33:38:076 -> 1967
13:33:38:085 -> 2132
13:33:38:096 -> 2110
13:33:38:107 -> 1995
13:33:38:115 -> 2013
13:33:38:126 -> 2369
13:33:38:135 -> 2014
13:33:38:146 -> 1989
13:33:38:156 -> 2237
13:33:38:166 -> 1934
13:33:38:176 -> 1964
13:33:38:186 -> 2052
13:33:38:196 -> 2236
13:33:38:206 -> 2246
13:33:38:216 -> 2196
13:33:38:226 -> 2036
13:33:38:236 -> 1955
13:33:38:246 -> 1871
13:33:38:256 -> 2103
13:33:38:266 -> 2047
13:33:38:276 -> 1891
13:33:38:286 -> 1988
13:33:38:296 -> 2007
13:33:38:306 -> 1974
13:33:38:316 -> 2232
13:33:38:331 -> 1994
13:33:38:336 -> 2171
13:33:38:346 -> 1843
13:33:38:357 -> 2081
13:33:38:368 -> 2146
13:33:38:377 -> 2077
13:33:38:387 -> 1968
13:33:38:425 -> 2089
13:33:38:426 -> 2010
13:33:38:426 -> 2100
13:33:38:427 -> 2017
13:33:38:437 -> 2112
13:33:38:447 -> 2028
13:33:38:457 -> 2107
13:33:38:467 -> 1993
13:33:38:477 -> 2119
13:33:38:487 -> 1903
13:33:38:497 -> 2174
13:33:38:507 -> 1976
13:33:38:517 -> 2142
13:33:38:527 -> 1990
13:33:38:537 -> 2119
13:33:38:547 -> 1978
13:33:38:558 -> 2160
13:33:38:568 -> 1975
13:33:38:578 -> 2174
13:33:38:587 -> 1979
13:33:38:598 -> 2174
13:33:38:608 -> 1992
13:33:38:618 -> 2156
13:33:38:628 -> 2006
13:33:38:644 -> 2170
13:33:38:651 -> 1976
13:33:38:658 -> 2177
13:33:38:668 -> 1983
13:33:38:678 -> 2199
13:33:38:688 -> 1967
13:33:38:698 -> 2198
13:33:38:708 -> 1973
13:33:38:718 -> 2231
13:33:38:728 -> 1957
13:33:38:738 -> 2256
13:33:38:748 -> 1936
13:33:38:758 -> 2234
13:33:38:768 -> 1940
13:33:38:778 -> 2235
13:33:38:788 -> 1934
13:33:38:798 -> 2252
13:33:38:809 -> 1928
13:33:38:819 -> 2255
13:33:38:829 -> 1947
13:33:38:839 -> 2254
13:33:38:849 -> 1922
13:33:38:859 -> 2239
13:33:38:870 -> 1928
13:33:38:879 -> 2232
13:33:38:889 -> 1920
13:33:38:899 -> 2233
13:33:38:909 -> 1922
13:33:38:921 -> 2221
13:33:38:951 -> 1924
13:33:38:952 -> 2224
13:33:38:952 -> 1943
13:33:38:959 -> 2224
13:33:38:969 -> 1940
13:33:38:979 -> 2206
13:33:38:989 -> 1962
13:33:39:000 -> 2185
13:33:39:009 -> 1966
13:33:39:020 -> 2211
13:33:39:030 -> 1943
13:33:39:040 -> 2167
13:33:39:051 -> 1927
13:33:39:060 -> 2164
13:33:39:070 -> 1945
13:33:39:080 -> 2147
13:33:39:090 -> 1944
13:33:39:109 -> 2153
13:33:39:110 -> 1926
13:33:39:120 -> 2153
13:33:39:130 -> 1959
13:33:39:140 -> 2164
13:33:39:150 -> 1959
13:33:39:160 -> 2162
13:33:39:170 -> 1965
13:33:39:180 -> 2156
13:33:39:191 -> 1971
13:33:39:200 -> 2149
13:33:39:210 -> 1969
13:33:39:220 -> 2151
13:33:39:231 -> 1979
13:33:39:264 -> 2149
13:33:39:264 -> 1994
13:33:39:270 -> 2145
13:33:39:271 -> 1989
13:33:39:281 -> 2130
13:33:39:291 -> 1991
13:33:39:301 -> 2133
13:33:39:311 -> 2006
13:33:39:321 -> 2131
13:33:39:353 -> 1994
13:33:39:358 -> 2138
13:33:39:358 -> 2031
13:33:39:361 -> 2123
13:33:39:399 -> 2043
13:33:39:399 -> 2147
13:33:39:399 -> 2041
13:33:39:404 -> 2150
13:33:39:411 -> 2055
13:33:39:423 -> 2133
13:33:39:436 -> 2056
13:33:39:494 -> 2108
13:33:39:494 -> 2054
13:33:39:496 -> 2146
13:33:39:496 -> 2058
13:33:39:496 -> 2133
13:33:39:496 -> 2058
13:33:39:504 -> 2129
13:33:39:512 -> 2069
13:33:39:522 -> 2116
13:33:39:532 -> 2065
13:33:39:542 -> 2119
13:33:39:552 -> 2082
13:33:39:562 -> 2072
13:33:39:572 -> 2094
13:33:39:582 -> 2109
13:33:39:592 -> 2088
13:33:39:602 -> 2104
13:33:39:612 -> 2085
13:33:39:622 -> 2099
13:33:39:632 -> 2085
13:33:39:642 -> 2098
13:33:39:652 -> 2083
13:33:39:662 -> 2092
13:33:39:672 -> 2081
13:33:39:682 -> 2073
13:33:39:692 -> 2068
13:33:39:702 -> 2086
13:33:39:712 -> 2084
13:33:39:723 -> 2082
13:33:39:733 -> 2086
13:33:39:743 -> 2082
13:33:39:760 -> 2099
13:33:39:763 -> 2083
13:33:39:773 -> 2097
13:33:39:783 -> 2083
13:33:39:793 -> 2097
13:33:39:803 -> 2066
13:33:39:813 -> 2103
13:33:39:823 -> 2072
13:33:39:833 -> 2102
13:33:39:843 -> 2075
13:33:39:854 -> 2098
13:33:39:863 -> 2076
13:33:39:873 -> 2096
13:33:39:884 -> 2052
13:33:39:894 -> 2082
13:33:39:903 -> 2057
13:33:39:913 -> 2074
13:33:39:923 -> 2063
13:33:39:934 -> 2096
13:33:39:944 -> 2029
13:33:39:954 -> 2119
13:33:39:964 -> 2016
13:33:39:974 -> 2133
13:33:39:984 -> 2013
13:33:40:021 -> 2164
13:33:40:023 -> 2002
13:33:40:023 -> 2144
13:33:40:024 -> 1995
13:33:40:034 -> 2140
13:33:40:044 -> 2010
13:33:40:066 -> 2140
13:33:40:073 -> 2015
13:33:40:074 -> 2141
13:33:40:084 -> 2047
13:33:40:094 -> 2116
13:33:40:104 -> 2071
13:33:40:115 -> 2107
13:33:40:124 -> 2087
13:33:40:134 -> 2094
13:33:40:144 -> 2099
13:33:40:154 -> 2107
13:33:40:164 -> 2089
13:33:40:175 -> 2110
13:33:40:185 -> 2096
13:33:40:195 -> 2088
13:33:40:205 -> 2104
13:33:40:215 -> 2096
13:33:40:225 -> 2106
13:33:40:235 -> 2110
13:33:40:245 -> 2070
13:33:40:255 -> 2117
13:33:40:265 -> 2087
13:33:40:275 -> 2101
13:33:40:285 -> 2034
13:33:40:295 -> 2126
13:33:40:305 -> 2119
13:33:40:315 -> 2101
13:33:40:325 -> 2096
13:33:40:335 -> 2127
13:33:40:350 -> 2109
13:33:40:355 -> 2218
13:33:40:366 -> 2099
13:33:40:375 -> 2095
13:33:40:385 -> 2058
13:33:40:396 -> 2092
13:33:40:406 -> 2038
13:33:40:416 -> 2123
13:33:40:426 -> 2062
13:33:40:436 -> 2229
13:33:40:446 -> 2031
13:33:40:456 -> 2063
13:33:40:466 -> 2152
13:33:40:476 -> 2280
13:33:40:486 -> 2049
13:33:40:496 -> 2006
13:33:40:507 -> 1972
13:33:40:516 -> 2271
13:33:40:551 -> 1794
13:33:40:552 -> 2089
13:33:40:552 -> 1950
13:33:40:556 -> 2052
13:33:40:567 -> 2047
13:33:40:576 -> 2075
13:33:40:596 -> 2024
13:33:40:598 -> 2069
13:33:40:607 -> 1764
13:33:40:617 -> 2550
13:33:40:627 -> 1922
13:33:40:637 -> 1838
13:33:40:647 -> 2127
13:33:40:657 -> 2332
13:33:40:667 -> 1932
13:33:40:677 -> 2149
13:33:40:687 -> 1945
13:33:40:697 -> 2220
13:33:40:708 -> 1756
13:33:40:717 -> 1987
13:33:40:727 -> 2053
13:33:40:737 -> 2104
13:33:40:747 -> 1990
13:33:40:757 -> 2490
13:33:40:767 -> 2035
13:33:40:777 -> 1984
13:33:40:787 -> 2077
13:33:40:797 -> 2359
13:33:40:807 -> 1943
13:33:40:823 -> 2067
13:33:40:827 -> 2044
13:33:40:837 -> 2128
13:33:40:863 -> 1923
13:33:40:886 -> 2251
13:33:40:886 -> 2062
13:33:40:886 -> 2328
13:33:40:925 -> 1995
13:33:40:925 -> 2241
13:33:40:925 -> 1925
13:33:40:925 -> 2303
13:33:40:945 -> 1824
13:33:40:945 -> 2172
13:33:40:953 -> 1866
13:33:40:971 -> 1984
13:33:40:971 -> 1986
13:33:40:978 -> 2363
13:33:40:988 -> 1869
13:33:41:000 -> 2174
13:33:41:008 -> 1855
13:33:41:018 -> 2179
13:33:41:028 -> 1946
13:33:41:038 -> 2106
13:33:41:048 -> 1889
13:33:41:077 -> 2302
13:33:41:078 -> 2052
13:33:41:079 -> 1999
13:33:41:089 -> 1825
13:33:41:099 -> 2165
13:33:41:109 -> 1918
13:33:41:119 -> 2278
13:33:41:129 -> 1974
13:33:41:139 -> 2217
13:33:41:158 -> 2065
13:33:41:159 -> 2167
13:33:41:170 -> 1921
13:33:41:179 -> 2227
13:33:41:191 -> 2037
13:33:41:199 -> 2164
13:33:41:209 -> 1717
13:33:41:220 -> 2155
13:33:41:229 -> 1851
13:33:41:242 -> 2125
13:33:41:249 -> 1970
13:33:41:259 -> 2260
13:33:41:279 -> 1868
13:33:41:280 -> 2230
13:33:41:291 -> 1885
13:33:41:300 -> 2314
13:33:41:310 -> 1939
13:33:41:321 -> 2382
13:33:41:330 -> 1972
13:33:41:340 -> 2342
13:33:41:350 -> 2002
13:33:41:360 -> 2032
13:33:41:370 -> 2098
13:33:41:380 -> 1883
13:33:41:393 -> 1916
13:33:41:402 -> 2167
13:33:41:410 -> 1912
13:33:41:420 -> 2356
13:33:41:430 -> 1905
13:33:41:441 -> 2381
13:33:41:450 -> 1910
13:33:41:474 -> 2026
13:33:41:477 -> 2086
13:33:41:480 -> 2068
13:33:41:490 -> 1851
13:33:41:501 -> 2082
13:33:41:510 -> 1936
13:33:41:521 -> 2021
13:33:41:531 -> 2111
13:33:41:541 -> 2097
13:33:41:551 -> 1953
13:33:41:561 -> 2272
13:33:41:571 -> 2294
13:33:41:609 -> 2449
13:33:41:611 -> 2183
13:33:41:611 -> 2088
13:33:41:612 -> 2008
13:33:41:621 -> 2007
13:33:41:631 -> 2090
13:33:41:641 -> 2042
13:33:41:651 -> 2130
13:33:41:661 -> 2122
13:33:41:671 -> 1890
13:33:41:681 -> 2242
13:33:41:691 -> 2072
13:33:41:701 -> 2171
13:33:41:711 -> 2058
13:33:41:721 -> 2230
13:33:41:731 -> 2003
13:33:41:741 -> 2223
13:33:41:753 -> 2108
13:33:41:761 -> 2162
13:33:41:772 -> 2000
13:33:41:782 -> 2087
13:33:41:792 -> 2112
13:33:41:802 -> 2091
13:33:41:812 -> 2101
13:33:41:822 -> 2080
13:33:41:832 -> 2098
13:33:41:842 -> 2076
13:33:41:852 -> 2114
13:33:41:862 -> 2073
13:33:41:872 -> 2087
13:33:41:882 -> 2062
13:33:41:892 -> 2072
13:33:41:902 -> 2049
13:33:41:912 -> 2088
13:33:41:922 -> 2060
13:33:41:932 -> 2080
13:33:41:942 -> 2047
13:33:41:952 -> 2090
13:33:41:964 -> 2036
13:33:41:975 -> 2106
13:33:41:983 -> 2046
13:33:41:993 -> 2089
13:33:42:003 -> 2048
13:33:42:013 -> 2076
13:33:42:023 -> 2032
13:33:42:033 -> 2090
13:33:42:043 -> 2041
13:33:42:053 -> 2116
13:33:42:064 -> 2033
13:33:42:074 -> 2135
13:33:42:084 -> 1964
13:33:42:093 -> 2130
13:33:42:103 -> 1988
13:33:42:137 -> 2132
13:33:42:138 -> 2001
13:33:42:138 -> 2137
13:33:42:143 -> 1986
13:33:42:153 -> 2137
13:33:42:164 -> 2004
13:33:42:173 -> 2117
13:33:42:184 -> 2028
13:33:42:194 -> 2101
13:33:42:207 -> 2042
13:33:42:214 -> 2093
13:33:42:225 -> 2066
13:33:42:234 -> 2091
13:33:42:244 -> 2071
13:33:42:254 -> 2062
13:33:42:264 -> 2068
13:33:42:274 -> 2066
13:33:42:284 -> 2078
13:33:42:294 -> 2064
13:33:42:304 -> 2068
13:33:42:314 -> 2103
13:33:42:324 -> 2078
13:33:42:334 -> 2095
13:33:42:344 -> 2087
13:33:42:354 -> 2099
13:33:42:364 -> 2097
13:33:42:374 -> 2084
13:33:42:384 -> 2099
13:33:42:394 -> 2094
13:33:42:404 -> 2095
13:33:42:415 -> 2107
13:33:42:424 -> 2097
13:33:42:434 -> 2133
13:33:42:445 -> 2065
13:33:42:455 -> 2136
13:33:42:465 -> 2054
13:33:42:475 -> 2143
13:33:42:485 -> 2068
13:33:42:495 -> 2136
13:33:42:506 -> 2070
13:33:42:543 -> 2138
13:33:42:556 -> 2075
13:33:42:556 -> 2123
13:33:42:556 -> 2065
13:33:42:556 -> 2103
13:33:42:586 -> 2068
13:33:42:586 -> 2111
13:33:42:586 -> 2068
13:33:42:595 -> 2105
13:33:42:609 -> 2071
13:33:42:618 -> 2124
13:33:42:627 -> 2062
13:33:42:637 -> 2114
13:33:42:665 -> 2036
13:33:42:669 -> 2103
13:33:42:669 -> 2015
13:33:42:676 -> 2129
13:33:42:686 -> 2022
13:33:42:696 -> 2129
13:33:42:706 -> 2003
13:33:42:717 -> 2139
13:33:42:742 -> 1996
13:33:42:746 -> 2133
13:33:42:746 -> 1974
13:33:42:756 -> 2140
13:33:42:767 -> 1970
13:33:42:779 -> 2142
13:33:42:789 -> 1971
13:33:42:796 -> 2146
13:33:42:806 -> 1949
13:33:42:820 -> 2140
13:33:42:826 -> 1956
13:33:42:842 -> 2130
13:33:42:846 -> 1954
13:33:42:857 -> 2127
13:33:42:867 -> 1954
13:33:42:877 -> 2134
13:33:42:886 -> 1965
13:33:42:897 -> 2139
13:33:42:907 -> 1939
13:33:42:917 -> 2163
13:33:42:927 -> 1950
13:33:42:937 -> 2182
13:33:42:947 -> 1945
13:33:42:957 -> 2188
13:33:42:967 -> 1947
13:33:42:977 -> 2205
13:33:42:988 -> 1953
13:33:42:997 -> 2208
13:33:43:007 -> 1941
13:33:43:017 -> 2222
13:33:43:028 -> 1950
13:33:43:037 -> 2255
13:33:43:058 -> 1949
13:33:43:059 -> 2236
13:33:43:067 -> 1920
13:33:43:077 -> 2229
13:33:43:087 -> 1922
13:33:43:098 -> 2231
13:33:43:108 -> 1933
13:33:43:118 -> 2217
13:33:43:128 -> 1943
13:33:43:138 -> 2234
13:33:43:149 -> 1953
13:33:43:158 -> 2224
13:33:43:187 -> 1948
13:33:43:189 -> 2240
13:33:43:189 -> 1951
13:33:43:198 -> 2224
13:33:43:208 -> 1963
13:33:43:218 -> 2220
13:33:43:228 -> 1959
13:33:43:238 -> 2231
13:33:43:248 -> 1957
13:33:43:258 -> 2200
13:33:43:268 -> 1950
13:33:43:278 -> 2206
13:33:43:291 -> 1913
13:33:43:298 -> 2196
13:33:43:308 -> 1960
13:33:43:318 -> 2184
13:33:43:328 -> 1949
13:33:43:338 -> 2215
13:33:43:349 -> 1978
13:33:43:359 -> 2188
13:33:43:369 -> 1977
13:33:43:379 -> 2199
13:33:43:389 -> 2005
13:33:43:399 -> 2123
13:33:43:409 -> 1961
13:33:43:419 -> 2193
13:33:43:429 -> 1956
13:33:43:439 -> 2185
13:33:43:449 -> 2021
13:33:43:459 -> 2136
13:33:43:469 -> 1922
13:33:43:479 -> 2192
13:33:43:492 -> 2079
13:33:43:499 -> 2102
13:33:43:509 -> 2001
13:33:43:519 -> 1973
13:33:43:529 -> 2076
13:33:43:539 -> 2065
13:33:43:550 -> 2231
13:33:43:559 -> 2095
13:33:43:569 -> 1795
13:33:43:579 -> 2256
13:33:43:590 -> 1933
13:33:43:600 -> 2199
13:33:43:610 -> 1922
13:33:43:620 -> 2184
13:33:43:630 -> 2128
13:33:43:640 -> 1955
13:33:43:650 -> 1952
13:33:43:660 -> 2133
13:33:43:670 -> 2041
13:33:43:680 -> 2236
13:33:43:714 -> 1919
13:33:43:715 -> 2067
13:33:43:715 -> 1847
13:33:43:722 -> 2278
13:33:43:730 -> 2262
13:33:43:740 -> 1901
13:33:43:751 -> 1925
13:33:43:760 -> 1906
13:33:43:770 -> 2066
13:33:43:780 -> 2074
13:33:43:791 -> 2106
13:33:43:801 -> 2055
13:33:43:811 -> 2002
13:33:43:821 -> 2186
13:33:43:831 -> 2143
13:33:43:841 -> 2019
13:33:43:851 -> 2088
13:33:43:861 -> 1970
13:33:43:871 -> 2063
13:33:43:881 -> 2036
13:33:43:891 -> 1809
13:33:43:901 -> 2140
13:33:43:911 -> 1834
13:33:43:921 -> 2376
13:33:43:931 -> 2168
13:33:43:941 -> 2119
13:33:43:951 -> 1855
13:33:43:961 -> 2102
13:33:43:971 -> 1876
13:33:43:981 -> 2110
13:33:43:991 -> 2183
13:33:44:002 -> 2346
13:33:44:011 -> 2030
13:33:44:021 -> 2021
13:33:44:031 -> 2185
13:33:44:041 -> 1814
13:33:44:052 -> 1971
13:33:44:065 -> 2161
13:33:44:072 -> 1771
13:33:44:082 -> 2351
13:33:44:092 -> 2087
13:33:44:102 -> 2182
13:33:44:112 -> 1904
13:33:44:122 -> 2147
13:33:44:132 -> 2128
13:33:44:142 -> 1926
13:33:44:152 -> 2010
13:33:44:173 -> 1912
13:33:44:174 -> 2035
13:33:44:182 -> 2092
13:33:44:195 -> 2097
13:33:44:202 -> 2240
13:33:44:236 -> 2046
13:33:44:238 -> 1991
13:33:44:238 -> 2015
13:33:44:244 -> 2089
13:33:44:253 -> 2219
13:33:44:263 -> 2020
13:33:44:273 -> 1997
13:33:44:283 -> 1890
13:33:44:293 -> 2228
13:33:44:303 -> 2134
13:33:44:313 -> 2353
13:33:44:323 -> 2044
13:33:44:333 -> 2108
13:33:44:343 -> 2094
13:33:44:353 -> 2127
13:33:44:363 -> 1952
13:33:44:373 -> 2081
13:33:44:383 -> 2197
13:33:44:393 -> 2239
13:33:44:408 -> 1998
13:33:44:413 -> 2008
13:33:44:423 -> 2119
13:33:44:434 -> 2164
13:33:44:444 -> 2031
13:33:44:453 -> 2330
13:33:44:472 -> 1973
13:33:44:493 -> 1908
13:33:44:493 -> 1987
13:33:44:506 -> 2067
13:33:44:506 -> 2014
13:33:44:539 -> 1939
13:33:44:539 -> 2348
13:33:44:539 -> 2033
13:33:44:544 -> 2153
13:33:44:554 -> 1828
13:33:44:564 -> 2001
13:33:44:574 -> 2211
13:33:44:586 -> 1914
13:33:44:594 -> 2125
13:33:44:604 -> 2022
13:33:44:614 -> 2011
13:33:44:624 -> 2160
13:33:44:635 -> 1803
13:33:44:644 -> 2103
13:33:44:655 -> 1962
13:33:44:664 -> 1900
13:33:44:674 -> 2073
13:33:44:684 -> 2127
13:33:44:705 -> 2005
13:33:44:705 -> 2045
13:33:44:714 -> 2115
13:33:44:725 -> 2129
13:33:44:735 -> 2038
13:33:44:764 -> 2102
13:33:44:771 -> 2038
13:33:44:771 -> 2120
13:33:44:776 -> 2036
13:33:44:785 -> 1998
13:33:44:795 -> 1934
13:33:44:805 -> 2081
13:33:44:815 -> 2118
13:33:44:825 -> 2003
13:33:44:836 -> 2169
13:33:44:845 -> 2007
13:33:44:855 -> 2270
13:33:44:865 -> 1991
13:33:44:875 -> 2159
13:33:44:885 -> 1946
13:33:44:895 -> 2142
13:33:44:905 -> 2067
13:33:44:916 -> 2171
13:33:44:925 -> 1968
13:33:44:935 -> 2150
13:33:44:946 -> 2019
13:33:44:956 -> 2110
13:33:44:966 -> 2003
13:33:44:982 -> 2170
13:33:44:989 -> 1972
13:33:44:996 -> 2154
13:33:45:006 -> 1977
13:33:45:029 -> 2187
13:33:45:029 -> 1971
13:33:45:036 -> 2176
13:33:45:053 -> 1967
13:33:45:058 -> 2182
13:33:45:071 -> 1960
13:33:45:076 -> 2207
13:33:45:086 -> 1957
13:33:45:096 -> 2216
13:33:45:111 -> 1942
13:33:45:126 -> 2222
13:33:45:134 -> 1940
13:33:45:140 -> 2231
13:33:45:150 -> 1982
13:33:45:159 -> 2213
13:33:45:175 -> 1944
13:33:45:180 -> 2247
13:33:45:187 -> 1947
13:33:45:197 -> 2237
13:33:45:207 -> 1943
13:33:45:217 -> 2241
13:33:45:227 -> 1946
13:33:45:237 -> 2236
13:33:45:247 -> 1939
13:33:45:258 -> 2234
13:33:45:286 -> 1939
13:33:45:287 -> 2225
13:33:45:287 -> 1943
13:33:45:297 -> 2206
13:33:45:307 -> 1952
13:33:45:317 -> 2208
13:33:45:327 -> 1941
13:33:45:337 -> 2202
13:33:45:347 -> 1950
13:33:45:357 -> 2192
13:33:45:367 -> 1950
13:33:45:377 -> 2181
13:33:45:389 -> 1950
13:33:45:397 -> 2170
13:33:45:408 -> 1956
13:33:45:418 -> 2169
13:33:45:428 -> 1929
13:33:45:438 -> 2164
13:33:45:448 -> 1952
13:33:45:458 -> 2180
13:33:45:468 -> 1961
13:33:45:478 -> 2175
13:33:45:488 -> 1995
13:33:45:498 -> 2182
13:33:45:508 -> 1978
13:33:45:518 -> 2192
13:33:45:528 -> 1984
13:33:45:543 -> 2169
13:33:45:548 -> 1999
13:33:45:558 -> 2165
13:33:45:568 -> 2002
13:33:45:578 -> 2169
13:33:45:588 -> 2014
13:33:45:598 -> 2159
13:33:45:608 -> 2016
13:33:45:619 -> 2157
13:33:45:628 -> 2020
13:33:45:639 -> 2147
13:33:45:649 -> 2013
13:33:45:659 -> 2153
13:33:45:669 -> 2019
13:33:45:679 -> 2142
13:33:45:689 -> 2022
13:33:45:699 -> 2145
13:33:45:709 -> 2028
13:33:45:726 -> 2134
13:33:45:729 -> 2045
13:33:45:741 -> 2146
13:33:45:749 -> 2038
13:33:45:762 -> 2139
13:33:45:773 -> 2043
13:33:45:779 -> 2137
13:33:45:816 -> 2055
13:33:45:818 -> 2128
13:33:45:818 -> 2048
13:33:45:819 -> 2114
13:33:45:830 -> 2054
13:33:45:841 -> 2122
13:33:45:850 -> 2059
13:33:45:860 -> 2117
13:33:45:870 -> 2071
13:33:45:880 -> 2105
13:33:45:890 -> 2063
13:33:45:900 -> 2104
13:33:45:910 -> 2067
13:33:45:920 -> 2097
13:33:45:930 -> 2073
13:33:45:940 -> 2093
13:33:45:972 -> 2092
13:33:46:029 -> 2066
13:33:46:029 -> 2083
13:33:46:029 -> 2103
13:33:46:029 -> 2090
13:33:46:029 -> 2090
13:33:46:029 -> 2083
13:33:46:029 -> 2083
13:33:46:054 -> 2071
13:33:46:054 -> 2065
13:33:46:054 -> 2077
13:33:46:074 -> 2058
13:33:46:074 -> 2080
13:33:46:110 -> 2049
13:33:46:110 -> 2088
13:33:46:110 -> 2041
13:33:46:113 -> 2085
13:33:46:121 -> 2053
13:33:46:131 -> 2079
13:33:46:141 -> 2047
13:33:46:152 -> 2085
13:33:46:161 -> 2061
13:33:46:171 -> 2086
13:33:46:181 -> 2037
13:33:46:191 -> 2075
13:33:46:202 -> 2051
13:33:46:211 -> 2106
13:33:46:221 -> 2031
13:33:46:231 -> 2141
13:33:46:247 -> 2001
13:33:46:251 -> 2160
13:33:46:263 -> 1996
13:33:46:271 -> 2165
13:33:46:281 -> 1998
13:33:46:292 -> 2157
13:33:46:302 -> 2005
13:33:46:314 -> 2145
13:33:46:348 -> 2022
13:33:46:349 -> 2127
13:33:46:349 -> 2055
13:33:46:352 -> 2127
13:33:46:362 -> 2063
13:33:46:372 -> 2103
13:33:46:382 -> 2078
13:33:46:392 -> 2104
13:33:46:402 -> 2080
13:33:46:412 -> 2103
13:33:46:422 -> 2078
13:33:46:435 -> 2110
13:33:46:442 -> 2068
13:33:46:452 -> 2118
13:33:46:462 -> 2059
13:33:46:472 -> 2104
13:33:46:482 -> 2079
13:33:46:492 -> 2106
13:33:46:502 -> 2081
13:33:46:524 -> 2064
13:33:46:526 -> 2054
13:33:46:533 -> 2116
13:33:46:543 -> 2077
13:33:46:553 -> 2131
13:33:46:563 -> 2090
13:33:46:573 -> 1994
13:33:46:583 -> 2045
13:33:46:593 -> 2004
13:33:46:603 -> 2028
13:33:46:613 -> 2111
13:33:46:623 -> 1990
13:33:46:633 -> 2186
13:33:46:643 -> 2118
13:33:46:653 -> 2145
13:33:46:663 -> 1904
13:33:46:673 -> 2114
13:33:46:683 -> 2042
13:33:46:693 -> 2052
13:33:46:703 -> 2038
13:33:46:713 -> 2064
13:33:46:724 -> 2028
13:33:46:734 -> 2003
13:33:46:744 -> 1975
13:33:46:754 -> 2090
13:33:46:764 -> 1890
13:33:46:774 -> 2073
13:33:46:791 -> 1957
13:33:46:796 -> 2132
13:33:46:804 -> 2032
13:33:46:814 -> 2052
13:33:46:824 -> 1979
13:33:46:834 -> 2100
13:33:46:844 -> 2050
13:33:46:882 -> 2142
13:33:46:884 -> 1928
13:33:46:884 -> 2219
13:33:46:884 -> 1980
13:33:46:894 -> 2229
13:33:46:904 -> 2018
13:33:46:915 -> 1890
13:33:46:924 -> 2291
13:33:46:934 -> 2376
13:33:46:944 -> 1706
13:33:46:954 -> 2128
13:33:46:976 -> 2025
13:33:46:977 -> 2311
13:33:46:985 -> 2352
13:33:46:995 -> 1876
13:33:47:005 -> 1957
13:33:47:015 -> 1873
13:33:47:025 -> 2015
13:33:47:035 -> 1941
13:33:47:045 -> 1792
13:33:47:055 -> 2101
13:33:47:065 -> 1874
13:33:47:075 -> 2709
13:33:47:085 -> 1778
13:33:47:095 -> 2407
13:33:47:105 -> 1843
13:33:47:115 -> 2177
13:33:47:125 -> 2010
13:33:47:135 -> 2013
13:33:47:147 -> 1949
13:33:47:155 -> 2081
13:33:47:165 -> 1813
13:33:47:175 -> 2501
13:33:47:185 -> 2020
13:33:47:196 -> 2006
13:33:47:206 -> 1947
13:33:47:223 -> 2306
13:33:47:226 -> 2097
13:33:47:236 -> 2458
13:33:47:246 -> 2061
13:33:47:256 -> 2372
13:33:47:266 -> 2168
13:33:47:276 -> 2480
13:33:47:286 -> 2007
13:33:47:296 -> 2178
13:33:47:306 -> 2119
13:33:47:317 -> 1788
13:33:47:326 -> 1887
13:33:47:336 -> 2383
13:33:47:346 -> 2046
13:33:47:356 -> 2379
13:33:47:367 -> 1999
13:33:47:376 -> 2165
13:33:47:411 -> 1878
13:33:47:412 -> 2071
13:33:47:412 -> 1854
13:33:47:417 -> 2060
13:33:47:427 -> 1962
13:33:47:437 -> 2162
13:33:47:447 -> 2074
13:33:47:457 -> 2391
13:33:47:467 -> 2100
13:33:47:477 -> 2221
13:33:47:491 -> 2003
13:33:47:497 -> 2210
13:33:47:509 -> 1860
13:33:47:517 -> 2148
13:33:47:527 -> 1958
13:33:47:537 -> 2163
13:33:47:547 -> 2080
13:33:47:557 -> 2170
13:33:47:567 -> 1974
13:33:47:577 -> 2076
13:33:47:587 -> 2017
13:33:47:597 -> 2004
13:33:47:607 -> 1971
13:33:47:617 -> 2145
13:33:47:627 -> 1871
13:33:47:639 -> 2129
13:33:47:666 -> 2009
13:33:47:666 -> 2159
13:33:47:703 -> 2011
13:33:47:703 -> 2115
13:33:47:703 -> 2060
13:33:47:703 -> 2134
13:33:47:708 -> 1977
13:33:47:722 -> 1911
13:33:47:746 -> 2010
13:33:47:746 -> 2078
13:33:47:748 -> 2076
13:33:47:758 -> 2131
13:33:47:768 -> 2052
13:33:47:793 -> 2140
13:33:47:801 -> 2141
13:33:47:801 -> 2038
13:33:47:808 -> 2310
13:33:47:818 -> 2520
13:33:47:829 -> 2100
13:33:47:838 -> 2360
13:33:47:849 -> 2013
13:33:47:858 -> 2067
13:33:47:869 -> 2105
13:33:47:879 -> 2143
13:33:47:889 -> 2152
13:33:47:899 -> 2180
13:33:47:909 -> 2171
13:33:47:944 -> 2218
13:33:47:946 -> 2083
13:33:47:946 -> 1986
13:33:47:949 -> 2082
13:33:47:959 -> 2094
13:33:47:969 -> 2009
13:33:47:979 -> 2052
13:33:47:989 -> 1925
13:33:47:999 -> 2153
13:33:48:009 -> 2066
13:33:48:020 -> 2027
13:33:48:034 -> 2088
13:33:48:040 -> 1807
13:33:48:054 -> 2120
13:33:48:059 -> 2120
13:33:48:070 -> 1945
13:33:48:079 -> 2006
13:33:48:090 -> 2091
13:33:48:100 -> 1921
13:33:48:110 -> 2168
13:33:48:120 -> 2102
13:33:48:130 -> 2129
13:33:48:140 -> 1978
13:33:48:150 -> 1983
13:33:48:160 -> 2087
13:33:48:170 -> 2140
13:33:48:180 -> 2122
13:33:48:190 -> 2074
13:33:48:200 -> 2043
13:33:48:210 -> 2040
13:33:48:220 -> 2089
13:33:48:230 -> 2091
13:33:48:240 -> 2060
13:33:48:258 -> 2105
13:33:48:260 -> 2045
13:33:48:270 -> 2190
13:33:48:284 -> 1938
13:33:48:290 -> 2207
13:33:48:300 -> 2008
13:33:48:310 -> 2171
13:33:48:320 -> 2036
13:33:48:331 -> 2159
13:33:48:341 -> 1945
13:33:48:351 -> 2131
13:33:48:361 -> 1971
13:33:48:371 -> 2101
13:33:48:382 -> 2050
13:33:48:391 -> 2125
13:33:48:405 -> 2045
13:33:48:411 -> 2108
13:33:48:421 -> 2038
13:33:48:431 -> 2078
13:33:48:441 -> 2035
13:33:48:478 -> 2087
13:33:48:480 -> 2084
13:33:48:480 -> 2087
13:33:48:481 -> 2088
13:33:48:491 -> 2108
13:33:48:501 -> 2067
13:33:48:511 -> 2107
13:33:48:521 -> 2085
13:33:48:532 -> 2109
13:33:48:541 -> 2088
13:33:48:552 -> 2099
13:33:48:562 -> 2093
13:33:48:572 -> 2105
13:33:48:582 -> 2113
13:33:48:592 -> 2100
13:33:48:602 -> 2122
13:33:48:612 -> 2121
13:33:48:622 -> 2095
13:33:48:632 -> 2117
13:33:48:642 -> 2075
13:33:48:656 -> 2124
13:33:48:662 -> 2052
13:33:48:672 -> 2149
13:33:48:682 -> 2057
13:33:48:692 -> 2148
13:33:48:702 -> 2041
13:33:48:712 -> 2143
13:33:48:722 -> 2035
13:33:48:732 -> 2131
13:33:48:742 -> 2033
13:33:48:752 -> 2113
13:33:48:763 -> 2047
13:33:48:773 -> 2101
13:33:48:783 -> 2047
13:33:48:793 -> 2084
13:33:48:803 -> 2037
13:33:48:813 -> 2116
13:33:48:823 -> 2033
13:33:48:833 -> 2105
13:33:48:843 -> 2010
13:33:48:860 -> 2108
13:33:48:863 -> 1985
13:33:48:873 -> 2114
13:33:48:883 -> 1976
13:33:48:893 -> 2119
13:33:48:903 -> 1965
13:33:48:913 -> 2114
13:33:48:923 -> 1959
13:33:48:933 -> 2120
13:33:48:943 -> 1957
13:33:48:953 -> 2113
13:33:48:963 -> 1947
13:33:48:993 -> 2136
13:33:48:994 -> 1945
13:33:48:994 -> 2117
13:33:49:004 -> 1937
13:33:49:016 -> 2132
13:33:49:024 -> 1951
13:33:49:035 -> 2129
13:33:49:044 -> 1948
13:33:49:054 -> 2121
13:33:49:064 -> 1948
13:33:49:074 -> 2121
13:33:49:084 -> 1962
13:33:49:094 -> 2149
13:33:49:105 -> 1973
13:33:49:114 -> 2174
13:33:49:131 -> 1961
13:33:49:158 -> 2178
13:33:49:158 -> 1957
13:33:49:158 -> 2183
13:33:49:178 -> 1961
13:33:49:178 -> 2198
13:33:49:211 -> 1931
13:33:49:211 -> 2184
13:33:49:211 -> 1940
13:33:49:229 -> 2205
13:33:49:229 -> 1927
13:33:49:240 -> 2223
13:33:49:249 -> 1939
13:33:49:265 -> 2227
13:33:49:265 -> 1938
13:33:49:275 -> 2258
13:33:49:285 -> 1943
13:33:49:295 -> 2233
13:33:49:305 -> 1953
13:33:49:315 -> 2257
13:33:49:325 -> 1958
13:33:49:335 -> 2242
13:33:49:345 -> 1950
13:33:49:355 -> 2245
13:33:49:373 -> 1947
13:33:49:375 -> 2246
13:33:49:385 -> 1974
13:33:49:398 -> 2242
13:33:49:405 -> 1974
13:33:49:415 -> 2240
13:33:49:425 -> 1969
13:33:49:436 -> 2227
13:33:49:445 -> 1975
13:33:49:455 -> 2216
13:33:49:466 -> 1972
13:33:49:476 -> 2213
13:33:49:486 -> 1971
13:33:49:522 -> 2191
13:33:49:524 -> 1960
13:33:49:524 -> 2174
13:33:49:526 -> 1961
13:33:49:536 -> 2181
13:33:49:546 -> 1967
13:33:49:556 -> 2170
13:33:49:566 -> 1965
13:33:49:576 -> 2172
13:33:49:586 -> 1975
13:33:49:609 -> 2162
13:33:49:611 -> 1974
13:33:49:616 -> 2165
13:33:49:627 -> 1985
13:33:49:637 -> 2170
13:33:49:646 -> 1973
13:33:49:656 -> 2169
13:33:49:667 -> 1998
13:33:49:676 -> 2183
13:33:49:687 -> 1997
13:33:49:697 -> 2179
13:33:49:707 -> 1975
13:33:49:717 -> 2140
13:33:49:727 -> 2026
13:33:49:737 -> 2142
13:33:49:747 -> 2027
13:33:49:757 -> 2218
13:33:49:767 -> 2080
13:33:49:777 -> 2183
13:33:49:787 -> 1991
13:33:49:797 -> 2194
13:33:49:807 -> 2027
13:33:49:817 -> 2066
13:33:49:827 -> 1985
13:33:49:839 -> 2098
13:33:49:847 -> 2103
13:33:49:857 -> 2152
13:33:49:867 -> 2116
13:33:49:877 -> 2066
13:33:49:896 -> 2135
13:33:49:898 -> 2201
13:33:49:908 -> 2073
13:33:49:918 -> 2163
13:33:49:928 -> 2111
13:33:49:938 -> 2090
13:33:49:948 -> 2261
13:33:49:958 -> 2294
13:33:49:968 -> 1996
13:33:49:978 -> 2065
13:33:49:988 -> 2303
13:33:49:998 -> 2062
13:33:50:008 -> 2444
13:33:50:018 -> 1823
13:33:50:049 -> 1926
13:33:50:051 -> 2042
13:33:50:051 -> 2182
13:33:50:058 -> 1647
13:33:50:068 -> 2504
13:33:50:078 -> 1674
13:33:50:088 -> 2145
13:33:50:098 -> 2018
13:33:50:109 -> 2437
13:33:50:127 -> 2394
13:33:50:128 -> 1857
13:33:50:144 -> 1894
13:33:50:149 -> 1869
13:33:50:159 -> 1913
13:33:50:169 -> 2242
13:33:50:179 -> 2319
13:33:50:189 -> 2059
13:33:50:199 -> 2161
13:33:50:209 -> 1984
13:33:50:219 -> 1882
13:33:50:230 -> 1558
13:33:50:239 -> 1904
13:33:50:249 -> 1808
13:33:50:259 -> 2321
13:33:50:269 -> 2343
13:33:50:279 -> 1971
13:33:50:289 -> 1900
13:33:50:299 -> 2323
13:33:50:309 -> 2088
13:33:50:324 -> 2154
13:33:50:329 -> 2150
13:33:50:340 -> 2401
13:33:50:350 -> 2062
13:33:50:360 -> 1830
13:33:50:370 -> 2373
13:33:50:380 -> 2051
13:33:50:390 -> 1786
13:33:50:400 -> 1887
13:33:50:410 -> 1943
13:33:50:420 -> 2054
13:33:50:430 -> 1894
13:33:50:440 -> 1803
13:33:50:450 -> 1906
13:33:50:460 -> 1951
13:33:50:470 -> 2503
13:33:50:480 -> 1818
13:33:50:490 -> 2133
13:33:50:500 -> 2037
13:33:50:510 -> 2324
13:33:50:525 -> 1983
13:33:50:530 -> 2247
13:33:50:540 -> 2082
13:33:50:577 -> 1940
13:33:50:578 -> 2096
13:33:50:578 -> 1988
13:33:50:580 -> 2138
13:33:50:591 -> 2083
13:33:50:601 -> 1952
13:33:50:611 -> 1835
13:33:50:621 -> 2216
13:33:50:631 -> 2256
13:33:50:641 -> 2007
13:33:50:651 -> 2138
13:33:50:661 -> 2093
13:33:50:671 -> 2133
13:33:50:681 -> 2009
13:33:50:691 -> 2322
13:33:50:701 -> 1827
13:33:50:711 -> 2157
13:33:50:722 -> 1934
13:33:50:731 -> 1769
13:33:50:746 -> 2250
13:33:50:754 -> 1945
13:33:50:761 -> 2199
13:33:50:775 -> 2373
13:33:50:781 -> 1707
13:33:50:791 -> 1994
13:33:50:801 -> 2148
13:33:50:811 -> 2079
13:33:50:821 -> 2037
13:33:50:832 -> 2149
13:33:50:841 -> 1965
13:33:50:852 -> 2641
13:33:50:862 -> 2180
13:33:50:872 -> 2097
13:33:50:882 -> 2224
13:33:50:892 -> 2287
13:33:50:902 -> 2252
13:33:50:912 -> 2196
13:33:50:922 -> 1962
13:33:50:942 -> 1986
13:33:50:948 -> 2120
13:33:50:955 -> 2000
13:33:50:962 -> 2006
13:33:50:972 -> 2035
13:33:50:985 -> 1670
13:33:50:993 -> 2448
13:33:51:002 -> 2002
13:33:51:040 -> 2304
13:33:51:056 -> 2154
13:33:51:056 -> 2145
13:33:51:056 -> 1960
13:33:51:056 -> 2337
13:33:51:131 -> 2007
13:33:51:131 -> 1906
13:33:51:131 -> 1547
13:33:51:164 -> 2188
13:33:51:164 -> 1942
13:33:51:164 -> 2275
13:33:51:164 -> 1911
13:33:51:164 -> 2224
13:33:51:164 -> 2137
13:33:51:164 -> 2128
13:33:51:164 -> 1881
13:33:51:173 -> 2296
13:33:51:183 -> 2075
13:33:51:193 -> 2181
13:33:51:203 -> 2226
13:33:51:214 -> 2292
13:33:51:223 -> 2058
13:33:51:233 -> 2201
13:33:51:243 -> 1915
13:33:51:253 -> 2231
13:33:51:263 -> 1902
13:33:51:273 -> 1726
13:33:51:290 -> 2082
13:33:51:295 -> 2158
13:33:51:304 -> 2004
13:33:51:314 -> 2155
13:33:51:324 -> 1934
13:33:51:334 -> 2301
13:33:51:344 -> 1847
13:33:51:354 -> 2218
13:33:51:364 -> 1921
13:33:51:374 -> 2109
13:33:51:384 -> 1910
13:33:51:394 -> 2221
13:33:51:404 -> 1890
13:33:51:414 -> 2305
13:33:51:424 -> 1994
13:33:51:434 -> 2275
13:33:51:444 -> 1944
13:33:51:454 -> 2269
13:33:51:464 -> 1894
13:33:51:474 -> 2221
13:33:51:484 -> 1947
13:33:51:499 -> 2230
13:33:51:504 -> 1957
13:33:51:514 -> 2278
13:33:51:526 -> 1945
13:33:51:535 -> 2243
13:33:51:545 -> 1940
13:33:51:555 -> 2197
13:33:51:565 -> 1976
13:33:51:575 -> 2166
13:33:51:585 -> 1951
13:33:51:595 -> 2217
13:33:51:605 -> 1932
13:33:51:617 -> 2209
13:33:51:626 -> 1971
13:33:51:708 -> 2231
13:33:51:726 -> 1945
13:33:51:726 -> 2201
13:33:51:726 -> 1983
13:33:51:726 -> 2168
13:33:51:726 -> 1969
13:33:51:726 -> 2167
13:33:51:726 -> 1997
13:33:51:726 -> 2154
13:33:51:726 -> 1989
13:33:51:735 -> 2187
13:33:51:746 -> 1969
13:33:51:755 -> 2166
13:33:51:766 -> 2007
13:33:51:776 -> 2170
13:33:51:786 -> 1980
13:33:51:796 -> 2155
13:33:51:806 -> 2011
13:33:51:825 -> 2171
13:33:51:828 -> 2024
13:33:51:836 -> 2153
13:33:51:846 -> 2001
13:33:51:856 -> 2142
13:33:51:866 -> 2018
13:33:51:876 -> 2141
13:33:51:886 -> 2028
13:33:51:896 -> 2141
13:33:51:906 -> 2027
13:33:51:916 -> 2112
13:33:51:926 -> 2038
13:33:51:936 -> 2147
13:33:51:946 -> 2038
13:33:51:956 -> 2128
13:33:51:967 -> 2059
13:33:51:976 -> 2124
13:33:51:987 -> 2033
13:33:51:997 -> 2112
13:33:52:007 -> 2068
13:33:52:017 -> 2121
13:33:52:027 -> 2061
13:33:52:041 -> 2132
13:33:52:047 -> 2060
13:33:52:057 -> 2130
13:33:52:067 -> 2062
13:33:52:077 -> 2135
13:33:52:089 -> 2066
13:33:52:097 -> 2123
13:33:52:107 -> 2071
13:33:52:117 -> 2116
13:33:52:127 -> 2085
13:33:52:137 -> 2092
13:33:52:147 -> 2073
13:33:52:157 -> 2118
13:33:52:167 -> 2071
13:33:52:177 -> 2103
13:33:52:206 -> 2071
13:33:52:207 -> 2109
13:33:52:207 -> 2077
13:33:52:218 -> 2108
13:33:52:228 -> 2081
13:33:52:238 -> 2098
13:33:52:248 -> 2087
13:33:52:258 -> 2077
13:33:52:268 -> 2078
13:33:52:278 -> 2037
13:33:52:289 -> 2089
13:33:52:298 -> 2060
13:33:52:315 -> 2082
13:33:52:321 -> 2060
13:33:52:328 -> 2078
13:33:52:339 -> 2070
13:33:52:348 -> 2081
13:33:52:358 -> 2046
13:33:52:368 -> 2109
13:33:52:378 -> 2049
13:33:52:388 -> 2106
13:33:52:399 -> 2076
13:33:52:408 -> 2099
13:33:52:418 -> 2068
13:33:52:428 -> 2086
13:33:52:439 -> 2074
13:33:52:449 -> 2100
13:33:52:459 -> 2052
13:33:52:469 -> 2102
13:33:52:479 -> 2044
13:33:52:489 -> 2124
13:33:52:509 -> 2039
13:33:52:511 -> 2148
13:33:52:519 -> 2027
13:33:52:529 -> 2157
13:33:52:539 -> 2016
13:33:52:549 -> 2119
13:33:52:559 -> 2019
13:33:52:569 -> 2136
13:33:52:579 -> 2012
13:33:52:589 -> 2147
13:33:52:600 -> 2034
13:33:52:609 -> 2108
13:33:52:620 -> 2049
13:33:52:630 -> 2102
13:33:52:639 -> 2064
13:33:52:649 -> 2091
13:33:52:660 -> 2073
13:33:52:670 -> 2086
13:33:52:680 -> 2072
13:33:52:690 -> 2082
13:33:52:700 -> 2084
13:33:52:745 -> 2083
13:33:52:747 -> 2077
13:33:52:747 -> 2079
13:33:52:747 -> 2088
13:33:52:753 -> 2069
13:33:52:760 -> 2082
13:33:52:771 -> 2033
13:33:52:780 -> 2086
13:33:52:790 -> 2087
13:33:52:801 -> 2093
13:33:52:826 -> 2083
13:33:52:838 -> 2094
13:33:52:838 -> 2098
13:33:52:840 -> 2102
13:33:52:872 -> 2118
13:33:52:872 -> 2078
13:33:52:872 -> 2114
13:33:52:881 -> 2055
13:33:52:891 -> 2099
13:33:52:903 -> 2053
13:33:52:911 -> 2135
13:33:52:921 -> 2034
13:33:52:931 -> 2121
13:33:52:941 -> 2045
13:33:52:951 -> 2121
13:33:52:963 -> 2020
13:33:52:971 -> 2113
13:33:52:981 -> 2045
13:33:52:991 -> 2122
13:33:53:001 -> 2097
13:33:53:011 -> 2090
13:33:53:021 -> 2074
13:33:53:039 -> 2069
13:33:53:042 -> 2040
13:33:53:051 -> 2151
13:33:53:068 -> 1933
13:33:53:071 -> 2136
13:33:53:081 -> 2022
13:33:53:093 -> 2170
13:33:53:103 -> 2100
13:33:53:112 -> 2128
13:33:53:122 -> 1930
13:33:53:132 -> 2186
13:33:53:142 -> 1867
13:33:53:152 -> 2349
13:33:53:162 -> 2065
13:33:53:173 -> 2105
13:33:53:182 -> 1871
13:33:53:192 -> 2252
13:33:53:204 -> 1930
13:33:53:212 -> 2252
13:33:53:222 -> 1875
13:33:53:232 -> 2245
13:33:53:242 -> 1944
13:33:53:272 -> 2145
13:33:53:272 -> 1908
13:33:53:272 -> 2116
13:33:53:283 -> 1973
13:33:53:292 -> 2049
13:33:53:302 -> 1871
13:33:53:312 -> 2308
13:33:53:322 -> 1888
13:33:53:345 -> 2410
13:33:53:348 -> 2001
13:33:53:354 -> 2286
13:33:53:363 -> 1914
13:33:53:373 -> 2171
13:33:53:383 -> 1734
13:33:53:393 -> 2422
13:33:53:403 -> 1988
13:33:53:413 -> 2512
13:33:53:423 -> 1999
13:33:53:433 -> 2363
13:33:53:443 -> 1610
13:33:53:453 -> 2571
13:33:53:463 -> 1560
13:33:53:473 -> 2462
13:33:53:483 -> 1695
13:33:53:493 -> 2241
13:33:53:503 -> 1572
13:33:53:513 -> 2448
13:33:53:523 -> 1830
13:33:53:533 -> 2374
13:33:53:543 -> 2120
13:33:53:558 -> 2014
13:33:53:564 -> 1904
13:33:53:574 -> 2215
13:33:53:584 -> 2079
13:33:53:594 -> 2301
13:33:53:605 -> 1983
13:33:53:614 -> 2445
13:33:53:624 -> 1737
13:33:53:634 -> 2208
13:33:53:644 -> 1564
13:33:53:654 -> 1997
13:33:53:664 -> 1940
13:33:53:674 -> 2385
13:33:53:684 -> 1859
13:33:53:694 -> 2108
13:33:53:704 -> 1945
13:33:53:714 -> 2104
13:33:53:724 -> 1811
13:33:53:734 -> 2038
13:33:53:744 -> 2046
13:33:53:754 -> 2166
13:33:53:802 -> 1960
13:33:53:804 -> 2051
13:33:53:804 -> 1962
13:33:53:804 -> 2176
13:33:53:805 -> 1921
13:33:53:815 -> 1966
13:33:53:825 -> 1923
13:33:53:836 -> 2207
13:33:53:846 -> 1928
13:33:53:855 -> 2143
13:33:53:869 -> 1906
13:33:53:875 -> 2223
13:33:53:885 -> 1767
13:33:53:895 -> 2146
13:33:53:905 -> 1993
13:33:53:915 -> 2269
13:33:53:925 -> 1949
13:33:53:935 -> 2157
13:33:53:945 -> 1980
13:33:53:955 -> 2215
13:33:53:965 -> 2135
13:33:53:975 -> 2151
13:33:53:985 -> 2051
13:33:53:996 -> 2003
13:33:54:005 -> 2002
13:33:54:024 -> 2200
13:33:54:025 -> 2055
13:33:54:036 -> 2013
13:33:54:046 -> 1755
13:33:54:056 -> 2117
13:33:54:066 -> 1989
13:33:54:076 -> 2320
13:33:54:086 -> 2055
13:33:54:096 -> 2261
13:33:54:106 -> 2156
13:33:54:116 -> 2008
13:33:54:126 -> 2091
13:33:54:136 -> 2155
13:33:54:146 -> 2157
13:33:54:156 -> 2268
13:33:54:166 -> 2164
13:33:54:176 -> 2006
13:33:54:186 -> 2100
13:33:54:196 -> 2114
13:33:54:206 -> 2085
13:33:54:217 -> 2067
13:33:54:226 -> 2214
13:33:54:236 -> 2239
13:33:54:246 -> 2177
13:33:54:257 -> 2010
13:33:54:267 -> 1925
13:33:54:277 -> 2124
13:33:54:287 -> 2124
13:33:54:336 -> 2142
13:33:54:336 -> 2101
13:33:54:336 -> 2074
13:33:54:336 -> 2164
13:33:54:337 -> 2149
13:33:54:347 -> 1846
13:33:54:357 -> 2082
13:33:54:367 -> 2200
13:33:54:377 -> 2006
13:33:54:387 -> 2199
13:33:54:397 -> 2005
13:33:54:407 -> 2077
13:33:54:417 -> 2236
13:33:54:427 -> 2116
13:33:54:437 -> 2046
13:33:54:447 -> 2100
13:33:54:457 -> 1847
13:33:54:467 -> 2034
13:33:54:478 -> 2120
13:33:54:488 -> 2030
13:33:54:498 -> 2184
13:33:54:508 -> 2105
13:33:54:518 -> 2091
13:33:54:528 -> 2108
13:33:54:545 -> 2140
13:33:54:575 -> 2117
13:33:54:575 -> 2128
13:33:54:575 -> 1981
13:33:54:586 -> 2092
13:33:54:612 -> 2165
13:33:54:612 -> 2100
13:33:54:612 -> 2128
13:33:54:624 -> 2002
13:33:54:637 -> 2106
13:33:54:639 -> 1977
13:33:54:666 -> 2268
13:33:54:666 -> 2013
13:33:54:673 -> 2096
13:33:54:678 -> 1917
13:33:54:689 -> 2150
13:33:54:699 -> 2014
13:33:54:709 -> 2231
13:33:54:719 -> 2009
13:33:54:729 -> 2154
13:33:54:739 -> 2061
13:33:54:752 -> 2082
13:33:54:759 -> 2164
13:33:54:769 -> 2067
13:33:54:779 -> 2002
13:33:54:789 -> 2329
13:33:54:799 -> 2120
13:33:54:809 -> 2131
13:33:54:819 -> 1998
13:33:54:829 -> 2132
13:33:54:868 -> 2124
13:33:54:870 -> 2046
13:33:54:870 -> 2225
13:33:54:870 -> 2007
13:33:54:879 -> 2083
13:33:54:889 -> 2162
13:33:54:900 -> 2166
13:33:54:909 -> 2021
13:33:54:919 -> 2202
13:33:54:930 -> 2027
13:33:54:940 -> 2073
13:33:54:951 -> 2149
13:33:54:960 -> 2090
13:33:54:970 -> 2076
13:33:54:980 -> 2018
13:33:54:990 -> 2105
13:33:55:000 -> 2054
13:33:55:010 -> 2110
13:33:55:020 -> 2037
13:33:55:030 -> 2159
13:33:55:040 -> 2038
13:33:55:051 -> 2116
13:33:55:061 -> 2069
13:33:55:070 -> 2100
13:33:55:080 -> 2024
13:33:55:090 -> 2066
13:33:55:101 -> 2039
13:33:55:110 -> 2050
13:33:55:120 -> 2043
13:33:55:131 -> 2063
13:33:55:141 -> 2027
13:33:55:155 -> 2071
13:33:55:161 -> 2004
13:33:55:171 -> 2065
13:33:55:181 -> 1965
13:33:55:191 -> 2104
13:33:55:201 -> 1982
13:33:55:211 -> 2103
13:33:55:222 -> 1986
13:33:55:231 -> 2111
13:33:55:241 -> 1988
13:33:55:251 -> 2137
13:33:55:261 -> 1986
13:33:55:271 -> 2137
13:33:55:281 -> 1977
13:33:55:291 -> 2149
13:33:55:302 -> 1976
13:33:55:311 -> 2153
13:33:55:321 -> 1957
13:33:55:332 -> 2153
13:33:55:341 -> 1961
13:33:55:351 -> 2149
13:33:55:362 -> 1961
13:33:55:397 -> 2150
13:33:55:398 -> 1981
13:33:55:398 -> 2146
13:33:55:402 -> 1966
13:33:55:412 -> 2148
13:33:55:422 -> 1977
13:33:55:432 -> 2171
13:33:55:452 -> 1979
13:33:55:453 -> 2182
13:33:55:463 -> 1978
13:33:55:472 -> 2202
13:33:55:484 -> 1968
13:33:55:492 -> 2205
13:33:55:502 -> 1973
13:33:55:514 -> 2082
13:33:55:522 -> 1978
13:33:55:532 -> 2238
13:33:55:542 -> 1958
13:33:55:552 -> 2245
13:33:55:563 -> 1934
13:33:55:572 -> 2260
13:33:55:582 -> 1928
13:33:55:593 -> 2256
13:33:55:603 -> 1919
13:33:55:612 -> 2258
13:33:55:623 -> 1927
13:33:55:633 -> 2252
13:33:55:643 -> 1919
13:33:55:653 -> 2250
13:33:55:663 -> 1941
13:33:55:673 -> 2242
13:33:55:691 -> 1934
13:33:55:693 -> 2250
13:33:55:704 -> 1941
13:33:55:713 -> 2237
13:33:55:723 -> 1942
13:33:55:733 -> 2223
13:33:55:743 -> 1929
13:33:55:753 -> 2207
13:33:55:763 -> 1937
13:33:55:773 -> 2210
13:33:55:784 -> 1951
13:33:55:793 -> 2197
13:33:55:803 -> 1940
13:33:55:813 -> 2185
13:33:55:824 -> 1949
13:33:55:834 -> 2181
13:33:55:844 -> 1935
13:33:55:854 -> 2175
13:33:55:864 -> 1948
13:33:55:874 -> 2176
13:33:55:884 -> 1962
13:33:55:894 -> 2169
13:33:55:935 -> 1960
13:33:55:950 -> 2167
13:33:55:950 -> 1957
13:33:55:950 -> 2176
13:33:55:950 -> 1969
13:33:55:958 -> 2156
13:33:55:964 -> 1985
13:33:55:974 -> 2153
13:33:55:984 -> 1979
13:33:55:994 -> 2144
13:33:56:004 -> 2001
13:33:56:014 -> 2141
13:33:56:024 -> 1994
13:33:56:034 -> 2141
13:33:56:044 -> 2008
13:33:56:054 -> 2127
13:33:56:065 -> 2023
13:33:56:075 -> 2138
13:33:56:085 -> 2018
13:33:56:095 -> 2135
13:33:56:105 -> 2021
13:33:56:115 -> 2124
13:33:56:125 -> 2023
13:33:56:135 -> 2114
13:33:56:145 -> 2038
13:33:56:155 -> 2131
13:33:56:165 -> 2050
13:33:56:175 -> 2124
13:33:56:185 -> 2048
13:33:56:195 -> 2137
13:33:56:212 -> 2060
13:33:56:217 -> 2131
13:33:56:225 -> 2068
13:33:56:235 -> 2108
13:33:56:245 -> 2125
13:33:56:256 -> 2070
13:33:56:269 -> 2075
13:33:56:276 -> 2115
13:33:56:286 -> 2087
13:33:56:296 -> 2139
13:33:56:306 -> 2070
13:33:56:316 -> 2144
13:33:56:326 -> 2105
13:33:56:336 -> 2159
13:33:56:346 -> 2119
13:33:56:356 -> 2178
13:33:56:366 -> 2050
13:33:56:376 -> 2123
13:33:56:386 -> 2108
13:33:56:396 -> 2024
13:33:56:406 -> 2228
13:33:56:416 -> 2083
13:33:56:426 -> 2161
13:33:56:465 -> 2154
13:33:56:465 -> 2110
13:33:56:465 -> 2015
13:33:56:467 -> 2054
13:33:56:477 -> 1799
13:33:56:486 -> 2249
13:33:56:497 -> 2180
13:33:56:526 -> 2064
13:33:56:531 -> 1937
13:33:56:531 -> 1921
13:33:56:555 -> 2115
13:33:56:555 -> 2090
13:33:56:569 -> 2014
13:33:56:569 -> 2217
13:33:56:577 -> 2260
13:33:56:587 -> 2157
13:33:56:599 -> 1805
13:33:56:607 -> 1887
13:33:56:617 -> 1977
13:33:56:627 -> 2305
13:33:56:637 -> 2118
13:33:56:647 -> 2171
13:33:56:657 -> 2025
13:33:56:667 -> 1999
13:33:56:677 -> 2134
13:33:56:687 -> 2330
13:33:56:697 -> 2119
13:33:56:707 -> 2126
13:33:56:724 -> 1802
13:33:56:727 -> 1724
13:33:56:738 -> 1938
13:33:56:748 -> 2013
13:33:56:758 -> 2037
13:33:56:769 -> 2135
13:33:56:778 -> 2104
13:33:56:788 -> 2002
13:33:56:798 -> 1877
13:33:56:808 -> 2060
13:33:56:818 -> 1873
13:33:56:828 -> 1935
13:33:56:838 -> 2363
13:33:56:849 -> 1887
13:33:56:858 -> 2283
13:33:56:868 -> 2354
13:33:56:878 -> 2139
13:33:56:890 -> 2030
13:33:56:898 -> 2027
13:33:56:908 -> 2612
13:33:56:918 -> 2006
13:33:56:940 -> 2406
13:33:56:941 -> 2211
13:33:56:949 -> 2455
13:33:56:959 -> 1807
13:33:56:993 -> 2144
13:33:56:994 -> 2124
13:33:56:994 -> 2362
13:33:57:001 -> 2324
13:33:57:010 -> 2078
13:33:57:020 -> 2100
13:33:57:030 -> 1998
13:33:57:048 -> 2155
13:33:57:051 -> 1979
13:33:57:060 -> 2140
13:33:57:069 -> 2223
13:33:57:079 -> 1693
13:33:57:089 -> 2387
13:33:57:100 -> 2183
13:33:57:109 -> 2059
13:33:57:120 -> 2023
13:33:57:131 -> 2067
13:33:57:139 -> 2044
13:33:57:150 -> 2072
13:33:57:159 -> 2051
13:33:57:169 -> 1954
13:33:57:179 -> 2074
13:33:57:189 -> 2261
13:33:57:207 -> 2051
13:33:57:210 -> 2271
13:33:57:220 -> 2050
13:33:57:230 -> 1830
13:33:57:241 -> 2348
13:33:57:250 -> 2335
13:33:57:260 -> 2414
13:33:57:270 -> 2092
13:33:57:280 -> 2075
13:33:57:290 -> 2207
13:33:57:301 -> 2131
13:33:57:310 -> 2042
13:33:57:320 -> 1788
13:33:57:330 -> 2080
13:33:57:340 -> 2106
13:33:57:350 -> 1957
13:33:57:360 -> 2208
13:33:57:370 -> 1731
13:33:57:381 -> 2193
13:33:57:391 -> 2160
13:33:57:408 -> 1921
13:33:57:411 -> 1971
13:33:57:421 -> 1930
13:33:57:431 -> 2176
13:33:57:441 -> 1691
13:33:57:453 -> 1921
13:33:57:461 -> 1614
13:33:57:471 -> 2153
13:33:57:481 -> 1935
13:33:57:491 -> 2006
13:33:57:515 -> 1803
13:33:57:517 -> 2173
13:33:57:521 -> 1745
13:33:57:531 -> 2232
13:33:57:541 -> 2136
13:33:57:551 -> 2177
13:33:57:561 -> 1757
13:33:57:571 -> 2184
13:33:57:581 -> 1453
13:33:57:591 -> 1963
13:33:57:601 -> 1966
13:33:57:612 -> 2130
13:33:57:621 -> 1870
13:33:57:637 -> 2060
13:33:57:641 -> 2191
13:33:57:652 -> 2669
13:33:57:663 -> 1912
13:33:57:673 -> 2310
13:33:57:686 -> 1920
13:33:57:692 -> 2268
13:33:57:702 -> 2125
13:33:57:713 -> 2442
13:33:57:722 -> 1791
13:33:57:732 -> 2601
13:33:57:742 -> 1866
13:33:57:752 -> 2135
13:33:57:762 -> 1876
13:33:57:772 -> 2240
13:33:57:782 -> 1787
13:33:57:792 -> 2476
13:33:57:802 -> 1964
13:33:57:812 -> 2301
13:33:57:822 -> 1863
13:33:57:839 -> 2249
13:33:57:842 -> 1909
13:33:57:852 -> 2180
13:33:57:863 -> 1981
13:33:57:873 -> 2161
13:33:57:883 -> 1854
13:33:57:893 -> 2054
13:33:57:903 -> 1830
13:33:57:913 -> 2288
13:33:57:923 -> 1915
13:33:57:933 -> 2226
13:33:57:943 -> 1934
13:33:57:953 -> 2263
13:33:57:963 -> 1872
13:33:57:973 -> 2224
13:33:57:983 -> 1833
13:33:57:993 -> 2185
13:33:58:003 -> 1961
13:33:58:049 -> 2193
13:33:58:051 -> 1931
13:33:58:051 -> 2200
13:33:58:051 -> 2020
13:33:58:053 -> 2166
13:33:58:063 -> 1961
13:33:58:073 -> 2159
13:33:58:086 -> 2006
13:33:58:095 -> 2169
13:33:58:106 -> 2019
13:33:58:114 -> 2139
13:33:58:124 -> 2021
13:33:58:134 -> 2155
13:33:58:144 -> 2010
13:33:58:154 -> 2157
13:33:58:164 -> 2030
13:33:58:174 -> 2165
13:33:58:184 -> 2032
13:33:58:194 -> 2148
13:33:58:204 -> 2031
13:33:58:245 -> 2146
13:33:58:257 -> 2049
13:33:58:257 -> 2098
13:33:58:257 -> 2050
13:33:58:257 -> 2102
13:33:58:291 -> 2035
13:33:58:291 -> 2121
13:33:58:291 -> 2036
13:33:58:313 -> 2109
13:33:58:313 -> 2044
13:33:58:334 -> 2115
13:33:58:334 -> 2050
13:33:58:362 -> 2130
13:33:58:362 -> 2059
13:33:58:362 -> 2120
13:33:58:383 -> 2053
13:33:58:383 -> 2120
13:33:58:394 -> 2055
13:33:58:401 -> 2125
13:33:58:405 -> 2061
13:33:58:415 -> 2124
13:33:58:425 -> 2080
13:33:58:435 -> 2105
13:33:58:445 -> 2064
13:33:58:457 -> 2123
13:33:58:468 -> 2108
13:33:58:475 -> 2105
13:33:58:486 -> 2090
13:33:58:495 -> 2100
13:33:58:506 -> 2101
13:33:58:520 -> 2101
13:33:58:526 -> 2094
13:33:58:536 -> 2106
13:33:58:546 -> 2106
13:33:58:573 -> 2099
13:33:58:573 -> 2092
13:33:58:576 -> 2091
13:33:58:586 -> 2088
13:33:58:596 -> 2098
13:33:58:606 -> 2095
13:33:58:616 -> 2080
13:33:58:626 -> 2091
13:33:58:636 -> 2080
13:33:58:646 -> 2102
13:33:58:656 -> 2052
13:33:58:676 -> 2049
13:33:58:666 -> 2102
13:33:58:689 -> 2098
13:33:58:696 -> 2035
13:33:58:708 -> 2093
13:33:58:716 -> 2046
13:33:58:726 -> 2100
13:33:58:736 -> 2080
13:33:58:746 -> 2097
13:33:58:757 -> 2030
13:33:58:768 -> 2121
13:33:58:777 -> 2033
13:33:58:787 -> 2142
13:33:58:797 -> 2002
13:33:58:808 -> 2147
13:33:58:817 -> 1986
13:33:58:827 -> 2149
13:33:58:837 -> 1981
13:33:58:847 -> 2125
13:33:58:857 -> 1997
13:33:58:867 -> 2133
13:33:58:877 -> 1992
13:33:58:887 -> 2121
13:33:58:897 -> 2018
13:33:58:907 -> 2084
13:33:58:927 -> 2021
13:33:58:929 -> 2080
13:33:58:937 -> 2057
13:33:58:948 -> 2087
13:33:58:958 -> 2062
13:33:58:967 -> 2083
13:33:58:978 -> 2069
13:33:58:988 -> 2084
13:33:58:998 -> 2073
13:33:59:008 -> 2084
13:33:59:018 -> 2077
13:33:59:028 -> 2074
13:33:59:038 -> 2044
13:33:59:048 -> 2093
13:33:59:058 -> 2083
13:33:59:068 -> 2086
13:33:59:103 -> 2094
13:33:59:104 -> 2073
13:33:59:104 -> 2090
13:33:59:108 -> 2075
13:33:59:118 -> 2096
13:33:59:128 -> 2081
13:33:59:138 -> 2067
13:33:59:149 -> 2091
13:33:59:158 -> 2071
13:33:59:168 -> 2130
13:33:59:179 -> 2047
13:33:59:192 -> 2127
13:33:59:199 -> 2084
13:33:59:209 -> 2116
13:33:59:219 -> 2028
13:33:59:229 -> 2143
13:33:59:239 -> 2053
13:33:59:258 -> 2130
13:33:59:261 -> 2064
13:33:59:269 -> 2113
13:33:59:281 -> 2068
13:33:59:289 -> 2114
13:33:59:299 -> 2050
13:33:59:309 -> 2090
13:33:59:319 -> 2074
13:33:59:329 -> 2096
13:33:59:339 -> 2052
13:33:59:349 -> 2144
13:33:59:359 -> 2056
13:33:59:369 -> 2156
13:33:59:379 -> 2050
13:33:59:389 -> 2154
13:33:59:399 -> 2009
13:33:59:410 -> 2144
13:33:59:419 -> 2002
13:33:59:430 -> 2065
13:33:59:440 -> 1974
13:33:59:450 -> 2148
13:33:59:460 -> 1952
13:33:59:474 -> 2075
13:33:59:481 -> 1813
13:33:59:490 -> 2025
13:33:59:500 -> 1994
13:33:59:510 -> 2160
13:33:59:520 -> 1973
13:33:59:530 -> 2131
13:33:59:540 -> 1974
13:33:59:550 -> 2065
13:33:59:560 -> 2070
13:33:59:570 -> 2179
13:33:59:581 -> 1973
13:33:59:590 -> 2246
13:33:59:600 -> 2035
13:33:59:626 -> 2251
13:33:59:627 -> 1954
13:33:59:630 -> 2097
13:33:59:644 -> 1737
13:33:59:651 -> 2118
13:33:59:661 -> 1553
13:33:59:671 -> 2007
13:33:59:681 -> 2101
13:33:59:691 -> 2462
13:33:59:701 -> 2157
13:33:59:711 -> 1519
13:33:59:721 -> 1792
13:33:59:731 -> 2375
13:33:59:741 -> 2358
13:33:59:751 -> 2272
13:33:59:761 -> 1770
13:33:59:771 -> 2271
13:33:59:781 -> 1689
13:33:59:791 -> 2150
13:33:59:801 -> 2149
13:33:59:812 -> 1991
13:33:59:821 -> 1490
13:33:59:833 -> 2187
13:33:59:842 -> 1936
13:33:59:851 -> 2289
13:33:59:861 -> 1999
13:33:59:872 -> 2228
13:33:59:882 -> 1822
13:33:59:892 -> 1809
13:33:59:902 -> 2284
13:33:59:912 -> 2406
13:33:59:922 -> 1781
13:33:59:932 -> 1982
13:33:59:942 -> 1956
13:33:59:952 -> 2016
13:33:59:962 -> 1766
13:33:59:972 -> 2076
13:33:59:982 -> 2184
13:33:59:992 -> 2369
13:34:00:002 -> 2138
13:34:00:013 -> 2485
13:34:00:022 -> 2183
13:34:00:032 -> 2490
13:34:00:043 -> 1919
13:34:00:052 -> 2509
13:34:00:067 -> 1752
13:34:00:111 -> 2148
13:34:00:111 -> 2068
13:34:00:111 -> 2253
13:34:00:111 -> 1799
13:34:00:120 -> 1984
13:34:00:123 -> 2171
13:34:00:164 -> 2311
13:34:00:170 -> 2239
13:34:00:170 -> 2098
13:34:00:170 -> 1808
13:34:00:174 -> 2548
13:34:00:184 -> 1868
13:34:00:205 -> 1954
13:34:00:209 -> 1664
13:34:00:213 -> 2008
13:34:00:223 -> 1878
13:34:00:233 -> 2487
13:34:00:243 -> 2036
13:34:00:254 -> 2137
13:34:00:288 -> 2165
13:34:00:288 -> 2006
13:34:00:288 -> 2179
13:34:00:308 -> 2139
13:34:00:308 -> 1846
13:34:00:329 -> 2056
13:34:00:329 -> 2026
13:34:00:382 -> 2176
13:34:00:382 -> 1659
13:34:00:385 -> 2271
13:34:00:385 -> 2058
13:34:00:385 -> 1736
13:34:00:385 -> 1974
13:34:00:394 -> 2177
13:34:00:404 -> 2058
13:34:00:414 -> 2260
13:34:00:424 -> 1970
13:34:00:434 -> 1792
13:34:00:444 -> 1976
13:34:00:454 -> 2454
13:34:00:464 -> 1937
13:34:00:474 -> 2080
13:34:00:485 -> 2156
13:34:00:494 -> 2111
13:34:00:504 -> 2176
13:34:00:514 -> 1892
13:34:00:524 -> 2202
13:34:00:534 -> 2116
13:34:00:545 -> 2289
13:34:00:562 -> 1947
13:34:00:570 -> 2024
13:34:00:575 -> 2085
13:34:00:585 -> 2088
13:34:00:595 -> 1994
13:34:00:605 -> 2137
13:34:00:616 -> 2269
13:34:00:626 -> 2035
13:34:00:635 -> 1902
13:34:00:645 -> 2192
13:34:00:655 -> 2254
13:34:00:696 -> 2351
13:34:00:697 -> 2176
13:34:00:697 -> 2280
13:34:00:697 -> 2069
13:34:00:705 -> 1921
13:34:00:716 -> 1935
13:34:00:726 -> 2147
13:34:00:736 -> 1662
13:34:00:746 -> 2097
13:34:00:756 -> 1697
13:34:00:766 -> 1995
13:34:00:777 -> 2607
13:34:00:786 -> 2227
13:34:00:798 -> 2167
13:34:00:806 -> 1770
13:34:00:817 -> 2124
13:34:00:826 -> 1914
13:34:00:844 -> 2278
13:34:00:846 -> 2037
13:34:00:856 -> 1797
13:34:00:866 -> 2307
13:34:00:876 -> 1799
13:34:00:886 -> 2171
13:34:00:896 -> 2007
13:34:00:906 -> 1862
13:34:00:917 -> 2002
13:34:00:926 -> 2119
13:34:00:936 -> 2081
13:34:00:947 -> 2140
13:34:00:958 -> 2015
13:34:00:966 -> 2182
13:34:00:976 -> 1937
13:34:00:987 -> 1969
13:34:00:997 -> 1798
13:34:01:007 -> 2269
13:34:01:024 -> 2344
13:34:01:027 -> 2189
13:34:01:037 -> 2172
13:34:01:051 -> 1738
13:34:01:057 -> 2158
13:34:01:067 -> 2100
13:34:01:079 -> 2213
13:34:01:087 -> 2317
13:34:01:097 -> 1823
13:34:01:107 -> 2124
13:34:01:125 -> 2114
13:34:01:127 -> 2101
13:34:01:137 -> 2080
13:34:01:149 -> 2052
13:34:01:158 -> 2013
13:34:01:167 -> 2150
13:34:01:177 -> 2074
13:34:01:187 -> 2049
13:34:01:222 -> 2006
13:34:01:224 -> 2091
13:34:01:224 -> 2054
13:34:01:228 -> 2102
13:34:01:238 -> 2051
13:34:01:248 -> 2177
13:34:01:258 -> 1975
13:34:01:268 -> 2141
13:34:01:278 -> 2026
13:34:01:288 -> 2132
13:34:01:298 -> 2019
13:34:01:308 -> 2122
13:34:01:320 -> 2067
13:34:01:328 -> 2070
13:34:01:338 -> 2081
13:34:01:357 -> 1944
13:34:01:359 -> 2078
13:34:01:369 -> 2087
13:34:01:378 -> 2053
13:34:01:388 -> 2091
13:34:01:399 -> 2032
13:34:01:408 -> 2094
13:34:01:418 -> 2032
13:34:01:428 -> 2102
13:34:01:438 -> 2028
13:34:01:449 -> 2078
13:34:01:459 -> 1966
13:34:01:469 -> 2154
13:34:01:479 -> 2006
13:34:01:489 -> 2141
13:34:01:499 -> 2000
13:34:01:509 -> 2153
13:34:01:519 -> 1998
13:34:01:529 -> 2152
13:34:01:540 -> 2001
13:34:01:549 -> 2187
13:34:01:559 -> 1989
13:34:01:569 -> 2196
13:34:01:579 -> 2013
13:34:01:589 -> 2203
13:34:01:599 -> 1989
13:34:01:609 -> 2163
13:34:01:619 -> 1996
13:34:01:639 -> 2153
13:34:01:640 -> 1998
13:34:01:651 -> 2159
13:34:01:660 -> 1994
13:34:01:670 -> 2154
13:34:01:682 -> 1986
13:34:01:690 -> 2168
13:34:01:700 -> 1957
13:34:01:710 -> 2181
13:34:01:720 -> 1959
13:34:01:752 -> 2193
13:34:01:756 -> 1984
13:34:01:756 -> 2203
13:34:01:760 -> 1957
13:34:01:792 -> 2203
13:34:01:811 -> 1934
13:34:01:811 -> 2209
13:34:01:832 -> 1950
13:34:01:832 -> 2217
13:34:01:832 -> 1942
13:34:01:832 -> 2221
13:34:01:840 -> 1944
13:34:01:851 -> 2213
13:34:01:868 -> 1940
13:34:01:870 -> 2211
13:34:01:880 -> 1927
13:34:01:891 -> 2222
13:34:01:901 -> 1931
13:34:01:911 -> 2215
13:34:01:921 -> 1915
13:34:01:935 -> 2218
13:34:01:941 -> 1926
13:34:01:951 -> 2228
13:34:01:962 -> 1955
13:34:01:971 -> 2238
13:34:01:983 -> 1954
13:34:01:991 -> 2234
13:34:02:001 -> 1948
13:34:02:011 -> 2207
13:34:02:021 -> 1939
13:34:02:032 -> 2197
13:34:02:041 -> 1937
13:34:02:052 -> 2187
13:34:02:062 -> 1931
13:34:02:071 -> 2178
13:34:02:082 -> 1939
13:34:02:092 -> 2184
13:34:02:106 -> 1951
13:34:02:111 -> 2170
13:34:02:122 -> 1941
13:34:02:132 -> 2171
13:34:02:142 -> 1960
13:34:02:152 -> 2172
13:34:02:165 -> 1970
13:34:02:172 -> 2165
13:34:02:182 -> 1949
13:34:02:192 -> 2152
13:34:02:202 -> 1980
13:34:02:212 -> 2162
13:34:02:222 -> 1975
13:34:02:232 -> 2158
13:34:02:250 -> 1974
13:34:02:293 -> 2156
13:34:02:294 -> 1998
13:34:02:294 -> 2179
13:34:02:294 -> 1972
13:34:02:294 -> 2156
13:34:02:302 -> 2008
13:34:02:312 -> 2148
13:34:02:322 -> 2018
13:34:02:334 -> 2149
13:34:02:343 -> 2024
13:34:02:353 -> 2140
13:34:02:363 -> 2029
13:34:02:373 -> 2144
13:34:02:383 -> 2023
13:34:02:394 -> 2142
13:34:02:404 -> 2049
13:34:02:413 -> 2147
13:34:02:423 -> 2043
13:34:02:433 -> 2152
13:34:02:443 -> 2044
13:34:02:453 -> 2146
13:34:02:463 -> 2043
13:34:02:473 -> 2143
13:34:02:483 -> 2067
13:34:02:493 -> 2156
13:34:02:503 -> 2073
13:34:02:513 -> 2131
13:34:02:523 -> 2127
13:34:02:533 -> 2184
13:34:02:543 -> 2078
13:34:02:554 -> 2116
13:34:02:563 -> 2035
13:34:02:574 -> 2080
13:34:02:584 -> 2077
13:34:02:594 -> 2114
13:34:02:604 -> 2128
13:34:02:614 -> 2025
13:34:02:624 -> 2167
13:34:02:634 -> 2133
13:34:02:644 -> 2072
13:34:02:654 -> 2106
13:34:02:664 -> 2048
13:34:02:674 -> 1986
13:34:02:684 -> 2161
13:34:02:694 -> 2079
13:34:02:704 -> 2201
13:34:02:714 -> 2110
13:34:02:724 -> 2201
13:34:02:741 -> 2162
13:34:02:744 -> 2049
13:34:02:754 -> 1882
13:34:02:765 -> 2009
13:34:02:775 -> 2048
13:34:02:785 -> 2081
13:34:02:823 -> 2127
13:34:02:824 -> 2190
13:34:02:824 -> 1958
13:34:02:825 -> 1991
13:34:02:836 -> 2211
13:34:02:845 -> 2190
13:34:02:855 -> 2007
13:34:02:866 -> 1881
13:34:02:875 -> 2228
13:34:02:885 -> 2194
13:34:02:895 -> 1950
13:34:02:906 -> 2486
13:34:02:918 -> 1879
13:34:02:925 -> 2109
13:34:02:935 -> 1907
13:34:02:946 -> 2128
13:34:02:956 -> 2162
13:34:02:966 -> 2434
13:34:02:975 -> 1947
13:34:02:986 -> 2019
13:34:02:996 -> 1607
13:34:03:005 -> 1951
13:34:03:017 -> 1885
13:34:03:026 -> 2067
13:34:03:036 -> 2000
13:34:03:046 -> 2249
13:34:03:056 -> 2013
13:34:03:066 -> 2094
13:34:03:079 -> 2185
13:34:03:086 -> 2139
13:34:03:096 -> 2127
13:34:03:106 -> 2062
13:34:03:117 -> 1940
13:34:03:126 -> 2500
13:34:03:136 -> 2020
13:34:03:146 -> 2157
13:34:03:156 -> 2009
13:34:03:166 -> 1941
13:34:03:176 -> 2110
13:34:03:186 -> 2025
13:34:03:197 -> 2046
13:34:03:206 -> 1978
13:34:03:216 -> 2749
13:34:03:226 -> 2165
13:34:03:237 -> 2164
13:34:03:247 -> 2150
13:34:03:257 -> 2024
13:34:03:274 -> 2120
13:34:03:277 -> 2217
13:34:03:287 -> 2083
13:34:03:297 -> 2134
13:34:03:307 -> 2130
13:34:03:317 -> 2053
13:34:03:373 -> 2079
13:34:03:375 -> 1948
13:34:03:375 -> 2132
13:34:03:375 -> 1886
13:34:03:375 -> 2115
13:34:03:377 -> 2139
13:34:03:388 -> 1888
13:34:03:397 -> 2017
13:34:03:407 -> 2383
13:34:03:417 -> 1934
13:34:03:427 -> 2006
13:34:03:437 -> 2119
13:34:03:447 -> 2151
13:34:03:457 -> 2007
13:34:03:468 -> 2021
13:34:03:478 -> 2073
13:34:03:488 -> 2063
13:34:03:498 -> 2144
13:34:03:508 -> 2193
13:34:03:525 -> 2113
13:34:03:528 -> 1994
13:34:03:538 -> 2024
13:34:03:548 -> 2024
13:34:03:558 -> 1841
13:34:03:569 -> 1979
13:34:03:578 -> 1961
13:34:03:588 -> 2268
13:34:03:598 -> 2042
13:34:03:608 -> 2169
13:34:03:618 -> 1940
13:34:03:628 -> 2112
13:34:03:638 -> 1998
13:34:03:649 -> 2081
13:34:03:658 -> 2024
13:34:03:668 -> 2278
13:34:03:679 -> 1730
13:34:03:688 -> 2093
13:34:03:699 -> 2096
13:34:03:709 -> 2076
13:34:03:719 -> 2212
13:34:03:729 -> 2034
13:34:03:743 -> 1991
13:34:03:768 -> 2140
13:34:03:768 -> 1943
13:34:03:781 -> 2053
13:34:03:781 -> 1934
13:34:03:823 -> 2101
13:34:03:823 -> 2080
13:34:03:823 -> 2330
13:34:03:823 -> 1965
13:34:03:829 -> 2293
13:34:03:842 -> 1949
13:34:03:856 -> 2271
13:34:03:859 -> 2040
13:34:03:869 -> 2182
13:34:03:900 -> 2008
13:34:03:901 -> 2194
13:34:03:901 -> 2009
13:34:03:910 -> 2206
13:34:03:919 -> 2037
13:34:03:930 -> 2271
13:34:03:940 -> 1961
13:34:03:950 -> 2221
13:34:03:960 -> 2024
13:34:03:970 -> 2194
13:34:03:980 -> 1867
13:34:03:990 -> 2206
13:34:04:005 -> 1972
13:34:04:027 -> 2215
13:34:04:027 -> 1973
13:34:04:030 -> 2068
13:34:04:043 -> 2042
13:34:04:050 -> 2113
13:34:04:060 -> 1955
13:34:04:070 -> 2246
13:34:04:081 -> 2057
13:34:04:090 -> 2268
13:34:04:101 -> 2014
13:34:04:110 -> 2225
13:34:04:121 -> 1863
13:34:04:131 -> 2241
13:34:04:141 -> 1862
13:34:04:151 -> 2201
13:34:04:161 -> 1936
13:34:04:171 -> 2181
13:34:04:181 -> 1973
13:34:04:191 -> 2255
13:34:04:201 -> 1942
13:34:04:211 -> 2227
13:34:04:221 -> 1913
13:34:04:231 -> 2239
13:34:04:242 -> 1968
13:34:04:251 -> 2189
13:34:04:261 -> 1962
13:34:04:271 -> 2211
13:34:04:281 -> 1967
13:34:04:291 -> 2190
13:34:04:301 -> 1973
13:34:04:311 -> 2178
13:34:04:321 -> 1981
13:34:04:341 -> 2182
13:34:04:342 -> 1966
13:34:04:351 -> 2223
13:34:04:361 -> 1967
13:34:04:372 -> 2171
13:34:04:382 -> 1964
13:34:04:392 -> 2150
13:34:04:425 -> 1982
13:34:04:426 -> 2153
13:34:04:426 -> 1992
13:34:04:433 -> 2148
13:34:04:442 -> 1984
13:34:04:452 -> 2145
13:34:04:462 -> 1999
13:34:04:472 -> 2133
13:34:04:482 -> 2010
13:34:04:492 -> 2135
13:34:04:502 -> 2007
13:34:04:512 -> 2145
13:34:04:522 -> 2034
13:34:04:539 -> 2133
13:34:04:546 -> 2030
13:34:04:552 -> 2137
13:34:04:562 -> 2034
13:34:04:572 -> 2142
13:34:04:583 -> 2055
13:34:04:593 -> 2141
13:34:04:603 -> 2046
13:34:04:613 -> 2141
13:34:04:623 -> 2069
13:34:04:633 -> 2148
13:34:04:643 -> 2081
13:34:04:653 -> 2138
13:34:04:663 -> 2056
13:34:04:673 -> 2153
13:34:04:683 -> 2062
13:34:04:693 -> 2144
13:34:04:703 -> 2060
13:34:04:713 -> 2148
13:34:04:723 -> 2066
13:34:04:733 -> 2135
13:34:04:743 -> 2067
13:34:04:753 -> 2132
13:34:04:763 -> 2062
13:34:04:780 -> 2130
13:34:04:783 -> 2058
13:34:04:794 -> 2122
13:34:04:803 -> 2075
13:34:04:813 -> 2128
13:34:04:824 -> 2077
13:34:04:834 -> 2111
13:34:04:844 -> 2061
13:34:04:854 -> 2102
13:34:04:864 -> 2065
13:34:04:874 -> 2100
13:34:04:884 -> 2060
13:34:04:894 -> 2071
13:34:04:904 -> 2074
13:34:04:914 -> 2071
13:34:04:924 -> 2057
13:34:04:957 -> 2051
13:34:04:958 -> 2044
13:34:04:958 -> 2046
13:34:04:966 -> 2046
13:34:04:974 -> 2034
13:34:04:984 -> 2051
13:34:04:994 -> 2021
13:34:05:004 -> 2052
13:34:05:014 -> 2028
13:34:05:024 -> 2051
13:34:05:034 -> 2023
13:34:05:044 -> 2055
13:34:05:055 -> 2037
13:34:05:070 -> 2053
13:34:05:076 -> 2027
13:34:05:088 -> 2060
13:34:05:095 -> 2033
13:34:05:105 -> 2071
13:34:05:115 -> 2033
13:34:05:125 -> 2130
13:34:05:135 -> 2010
13:34:05:145 -> 2127
13:34:05:155 -> 1996
13:34:05:167 -> 2145
13:34:05:175 -> 1976
13:34:05:185 -> 2139
13:34:05:195 -> 1979
13:34:05:205 -> 2139
13:34:05:215 -> 1977
13:34:05:225 -> 2125
13:34:05:235 -> 1994
13:34:05:245 -> 2122
13:34:05:255 -> 2015
13:34:05:266 -> 2122
13:34:05:276 -> 2036
13:34:05:286 -> 2106
13:34:05:296 -> 2067
13:34:05:306 -> 2102
13:34:05:316 -> 2082
13:34:05:349 -> 2078
13:34:05:361 -> 2085
13:34:05:361 -> 2098
13:34:05:361 -> 2098
13:34:05:383 -> 2094
13:34:05:383 -> 2111
13:34:05:395 -> 2119
13:34:05:397 -> 2089
13:34:05:408 -> 2115
13:34:05:428 -> 2093
13:34:05:428 -> 2099
13:34:05:438 -> 2086
13:34:05:446 -> 2096
13:34:05:479 -> 2100
13:34:05:492 -> 2067
13:34:05:492 -> 2099
13:34:05:492 -> 2138
13:34:05:497 -> 2032
13:34:05:507 -> 2098
13:34:05:517 -> 2060
13:34:05:527 -> 2123
13:34:05:537 -> 2068
13:34:05:547 -> 2173
13:34:05:557 -> 2107
13:34:05:568 -> 2149
13:34:05:577 -> 2044
13:34:05:587 -> 2148
13:34:05:597 -> 2028
13:34:05:607 -> 2130
13:34:05:617 -> 2008
13:34:05:627 -> 2081
13:34:05:637 -> 2076
13:34:05:647 -> 2103
13:34:05:657 -> 2028
13:34:05:667 -> 2035
13:34:05:677 -> 2021
13:34:05:690 -> 2025
13:34:05:698 -> 2125
13:34:05:707 -> 2111
13:34:05:717 -> 2040
13:34:05:728 -> 2043
13:34:05:738 -> 2063
13:34:05:748 -> 2097
13:34:05:758 -> 2005
13:34:05:768 -> 2117
13:34:05:778 -> 2072
13:34:05:788 -> 2082
13:34:05:798 -> 1940
13:34:05:808 -> 2184
13:34:05:818 -> 1944
13:34:05:828 -> 2195
13:34:05:838 -> 2006
13:34:05:848 -> 2143
13:34:05:858 -> 2019
13:34:05:868 -> 2347
13:34:05:878 -> 1818
13:34:05:888 -> 1950
13:34:05:909 -> 1991
13:34:05:910 -> 2097
13:34:05:918 -> 2051
13:34:05:929 -> 1876
13:34:05:938 -> 2061
13:34:05:950 -> 1864
13:34:05:959 -> 1954
13:34:05:969 -> 2065
13:34:06:007 -> 2082
13:34:06:008 -> 2419
13:34:06:008 -> 1717
13:34:06:009 -> 2040
13:34:06:020 -> 1748
13:34:06:029 -> 2146
13:34:06:040 -> 1566
13:34:06:050 -> 2054
13:34:06:059 -> 2070
13:34:06:069 -> 2370
13:34:06:079 -> 2150
13:34:06:089 -> 2208
13:34:06:099 -> 2080
13:34:06:109 -> 2815
13:34:06:122 -> 1774
13:34:06:130 -> 2312
13:34:06:140 -> 2148
13:34:06:151 -> 2092
13:34:06:160 -> 1810
13:34:06:176 -> 2180
13:34:06:180 -> 1991
13:34:06:190 -> 2369
13:34:06:200 -> 1772
13:34:06:210 -> 2103
13:34:06:228 -> 1978
13:34:06:230 -> 1975
13:34:06:240 -> 1678
13:34:06:251 -> 2158
13:34:06:260 -> 2082
13:34:06:271 -> 2298
13:34:06:280 -> 1927
13:34:06:290 -> 1866
13:34:06:300 -> 2090
13:34:06:310 -> 2113
13:34:06:320 -> 1942
13:34:06:330 -> 2063
13:34:06:340 -> 1957
13:34:06:350 -> 2186
13:34:06:360 -> 2259
13:34:06:370 -> 2204
13:34:06:383 -> 2028
13:34:06:391 -> 2244
13:34:06:401 -> 1628
13:34:06:411 -> 2091
13:34:06:421 -> 1915
13:34:06:431 -> 2219
13:34:06:441 -> 1982
13:34:06:460 -> 2048
13:34:06:461 -> 1838
13:34:06:471 -> 2293
13:34:06:481 -> 2201
13:34:06:491 -> 2265
13:34:06:501 -> 1929
13:34:06:531 -> 2223
13:34:06:533 -> 1857
13:34:06:533 -> 1951
13:34:06:541 -> 2059
13:34:06:551 -> 2195
13:34:06:562 -> 2075
13:34:06:572 -> 2231
13:34:06:584 -> 2015
13:34:06:592 -> 1905
13:34:06:602 -> 2125
13:34:06:612 -> 1994
13:34:06:622 -> 1968
13:34:06:633 -> 1977
13:34:06:642 -> 2094
13:34:06:652 -> 2125
13:34:06:662 -> 2063
13:34:06:672 -> 2203
13:34:06:685 -> 1855
13:34:06:692 -> 2085
13:34:06:702 -> 1983
13:34:06:712 -> 2148
13:34:06:722 -> 2120
13:34:06:732 -> 2191
13:34:06:742 -> 1974
13:34:06:752 -> 2036
13:34:06:762 -> 1846
13:34:06:772 -> 2396
13:34:06:782 -> 2167
13:34:06:792 -> 2288
13:34:06:803 -> 2125
13:34:06:812 -> 2064
13:34:06:822 -> 2217
13:34:06:833 -> 2067
13:34:06:842 -> 1889
13:34:06:852 -> 1998
13:34:06:862 -> 2041
13:34:06:872 -> 2170
13:34:06:883 -> 2115
13:34:06:893 -> 2137
13:34:06:903 -> 2130
13:34:06:913 -> 2284
13:34:06:923 -> 2239
13:34:06:933 -> 2115
13:34:06:943 -> 1781
13:34:06:954 -> 2083
13:34:06:963 -> 2032
13:34:06:973 -> 2178
13:34:06:983 -> 1882
13:34:06:993 -> 2255
13:34:07:003 -> 2115
13:34:07:013 -> 1983
13:34:07:030 -> 2087
13:34:07:083 -> 2264
13:34:07:083 -> 2168
13:34:07:113 -> 2212
13:34:07:113 -> 2283
13:34:07:113 -> 2153
13:34:07:113 -> 1776
13:34:07:113 -> 1876
13:34:07:113 -> 2224
13:34:07:130 -> 2157
13:34:07:130 -> 2257
13:34:07:134 -> 2138
13:34:07:145 -> 2060
13:34:07:157 -> 2059
13:34:07:164 -> 1906
13:34:07:174 -> 2097
13:34:07:184 -> 1962
13:34:07:194 -> 2006
13:34:07:204 -> 2092
13:34:07:214 -> 2090
13:34:07:225 -> 2143
13:34:07:234 -> 2036
13:34:07:267 -> 1994
13:34:07:267 -> 2076
13:34:07:267 -> 1973
13:34:07:275 -> 2069
13:34:07:284 -> 2038
13:34:07:297 -> 2007
13:34:07:309 -> 2095
13:34:07:320 -> 2051
13:34:07:327 -> 2126
13:34:07:335 -> 1978
13:34:07:345 -> 2140
13:34:07:355 -> 1963
13:34:07:365 -> 2145
13:34:07:380 -> 1968
13:34:07:386 -> 2104
13:34:07:395 -> 1967
13:34:07:405 -> 2085
13:34:07:415 -> 2005
13:34:07:426 -> 2130
13:34:07:435 -> 2025
13:34:07:445 -> 2113
13:34:07:455 -> 2032
13:34:07:465 -> 2101
13:34:07:476 -> 2057
13:34:07:485 -> 2089
13:34:07:495 -> 2060
13:34:07:505 -> 2087
13:34:07:515 -> 2070
13:34:07:525 -> 2082
13:34:07:537 -> 2108
13:34:07:545 -> 2035
13:34:07:556 -> 2091
13:34:07:566 -> 2100
13:34:07:576 -> 2053
13:34:07:610 -> 2111
13:34:07:613 -> 2094
13:34:07:613 -> 2094
13:34:07:616 -> 2076
13:34:07:626 -> 2092
13:34:07:636 -> 2068
13:34:07:646 -> 2108
13:34:07:656 -> 2111
13:34:07:666 -> 2108
13:34:07:676 -> 2094
13:34:07:686 -> 2123
13:34:07:696 -> 2072
13:34:07:706 -> 2122
13:34:07:716 -> 2061
13:34:07:726 -> 2162
13:34:07:736 -> 2038
13:34:07:746 -> 2125
13:34:07:756 -> 2066
13:34:07:767 -> 2144
13:34:07:776 -> 2051
13:34:07:786 -> 2130
13:34:07:796 -> 2050
13:34:07:807 -> 2111
13:34:07:824 -> 2063
13:34:07:827 -> 2105
13:34:07:837 -> 2053
13:34:07:847 -> 2031
13:34:07:857 -> 2039
13:34:07:867 -> 2132
13:34:07:877 -> 2051
13:34:07:887 -> 2120
13:34:07:897 -> 2030
13:34:07:907 -> 2119
13:34:07:917 -> 2019
13:34:07:927 -> 2134
13:34:07:937 -> 2012
13:34:07:947 -> 2135
13:34:07:957 -> 1969
13:34:07:967 -> 2161
13:34:07:977 -> 2003
13:34:07:987 -> 2157
13:34:07:997 -> 1987
13:34:08:007 -> 2162
13:34:08:018 -> 2004
13:34:08:028 -> 2162
13:34:08:038 -> 1993
13:34:08:053 -> 2174
13:34:08:058 -> 1996
13:34:08:068 -> 2167
13:34:08:078 -> 1981
13:34:08:088 -> 2164
13:34:08:099 -> 1998
13:34:08:108 -> 2177
13:34:08:134 -> 1981
13:34:08:137 -> 2159
13:34:08:138 -> 1986
13:34:08:151 -> 2143
13:34:08:158 -> 1983
13:34:08:168 -> 2154
13:34:08:178 -> 1990
13:34:08:188 -> 2131
13:34:08:200 -> 1994
13:34:08:208 -> 2176
13:34:08:219 -> 1968
13:34:08:229 -> 2186
13:34:08:238 -> 1969
13:34:08:249 -> 2199
13:34:08:259 -> 1959
13:34:08:269 -> 2219
13:34:08:279 -> 1959
13:34:08:289 -> 2228
13:34:08:300 -> 1930
13:34:08:309 -> 2225
13:34:08:319 -> 1936
13:34:08:329 -> 2238
13:34:08:339 -> 1912
13:34:08:349 -> 2232
13:34:08:359 -> 1944
13:34:08:369 -> 2242
13:34:08:379 -> 1951
13:34:08:389 -> 2246
13:34:08:400 -> 1950
13:34:08:409 -> 2230
13:34:08:419 -> 1953
13:34:08:429 -> 2251
13:34:08:439 -> 1955
13:34:08:449 -> 2243
13:34:08:459 -> 1969
13:34:08:470 -> 2249
13:34:08:480 -> 1971
13:34:08:490 -> 2229
13:34:08:500 -> 1965
13:34:08:510 -> 2230
13:34:08:520 -> 1963
13:34:08:530 -> 2205
13:34:08:540 -> 1965
13:34:08:552 -> 2206
13:34:08:568 -> 1966
13:34:08:575 -> 2167
13:34:08:580 -> 1948
13:34:08:590 -> 2155
13:34:08:600 -> 1974
13:34:08:610 -> 2148
13:34:08:620 -> 1960
13:34:08:630 -> 2166
13:34:08:664 -> 1937
13:34:08:666 -> 2177
13:34:08:666 -> 1970
13:34:08:671 -> 2166
13:34:08:681 -> 1980
13:34:08:690 -> 2150
13:34:08:714 -> 1954
13:34:08:733 -> 2148
13:34:08:733 -> 1994
13:34:08:733 -> 2083
13:34:08:741 -> 1993
13:34:08:767 -> 2126
13:34:08:767 -> 1965
13:34:08:771 -> 2218
13:34:08:781 -> 1983
13:34:08:796 -> 2101
13:34:08:809 -> 2044
13:34:08:811 -> 2163
13:34:08:821 -> 2005
13:34:08:831 -> 2104
13:34:08:852 -> 2045
13:34:08:854 -> 2117
13:34:08:861 -> 1980
13:34:08:871 -> 2111
13:34:08:882 -> 2029
13:34:08:892 -> 2205
13:34:08:902 -> 2009
13:34:08:912 -> 2139
13:34:08:922 -> 2006
13:34:08:932 -> 2103
13:34:08:942 -> 2006
13:34:08:952 -> 2120
13:34:08:962 -> 1898
13:34:08:972 -> 2141
13:34:08:982 -> 2022
13:34:08:992 -> 2288
13:34:09:002 -> 2048
13:34:09:012 -> 2115
13:34:09:022 -> 2098
13:34:09:032 -> 2227
13:34:09:042 -> 1853
13:34:09:057 -> 2218
13:34:09:062 -> 2238
13:34:09:073 -> 2233
13:34:09:082 -> 1979
13:34:09:095 -> 2154
13:34:09:105 -> 1925
13:34:09:112 -> 2031
13:34:09:122 -> 2137
13:34:09:133 -> 1906
13:34:09:143 -> 1867
13:34:09:153 -> 2371
13:34:09:163 -> 2266
13:34:09:190 -> 2017
13:34:09:191 -> 2090
13:34:09:193 -> 1984
13:34:09:211 -> 2247
13:34:09:220 -> 2073
13:34:09:226 -> 2184
13:34:09:233 -> 2050
13:34:09:243 -> 2123
13:34:09:256 -> 1969
13:34:09:263 -> 1877
13:34:09:273 -> 2179
13:34:09:283 -> 1854
13:34:09:293 -> 2089
13:34:09:303 -> 2177
13:34:09:313 -> 1983
13:34:09:323 -> 2219
13:34:09:333 -> 2271
13:34:09:343 -> 2110
13:34:09:357 -> 2109
13:34:09:364 -> 2087
13:34:09:374 -> 2026
13:34:09:384 -> 2169
13:34:09:394 -> 2226
13:34:09:404 -> 2035
13:34:09:414 -> 2073
13:34:09:424 -> 1944
13:34:09:434 -> 1957
13:34:09:444 -> 2048
13:34:09:454 -> 2064
13:34:09:464 -> 2381
13:34:09:474 -> 1953
13:34:09:484 -> 2038
13:34:09:494 -> 1841
13:34:09:504 -> 2094
13:34:09:514 -> 2042
13:34:09:524 -> 2298
13:34:09:535 -> 1608
13:34:09:544 -> 2057
13:34:09:554 -> 1754
13:34:09:564 -> 2096
13:34:09:584 -> 1915
13:34:09:589 -> 2221
13:34:09:595 -> 1981
13:34:09:605 -> 1891
13:34:09:615 -> 1959
13:34:09:625 -> 1917
13:34:09:635 -> 1913
13:34:09:645 -> 1880
13:34:09:656 -> 1992
13:34:09:666 -> 2071
13:34:09:675 -> 2008
13:34:09:685 -> 2190
13:34:09:718 -> 2172
13:34:09:719 -> 2098
13:34:09:719 -> 2280
13:34:09:725 -> 2051
13:34:09:735 -> 2022
13:34:09:746 -> 1965
13:34:09:755 -> 2172
13:34:09:768 -> 2061
13:34:09:776 -> 1892
13:34:09:785 -> 2102
13:34:09:796 -> 2199
13:34:09:806 -> 1961
13:34:09:819 -> 2265
13:34:09:826 -> 2136
13:34:09:836 -> 2125
13:34:09:846 -> 2071
13:34:09:856 -> 1969
13:34:09:867 -> 1996
13:34:09:877 -> 2130
13:34:09:887 -> 2073
13:34:09:896 -> 2318
13:34:09:907 -> 2073
13:34:09:916 -> 2113
13:34:09:926 -> 2106
13:34:09:937 -> 2015
13:34:09:946 -> 2193
13:34:09:956 -> 1916
13:34:09:966 -> 2323
13:34:09:976 -> 1992
13:34:09:986 -> 2198
13:34:09:996 -> 2024
13:34:10:006 -> 2395
13:34:10:017 -> 2166
13:34:10:027 -> 2024
13:34:10:037 -> 2146
13:34:10:047 -> 2227
13:34:10:057 -> 2119
13:34:10:067 -> 2141
13:34:10:077 -> 2013
13:34:10:091 -> 2189
13:34:10:097 -> 1957
13:34:10:107 -> 2068
13:34:10:117 -> 1956
13:34:10:127 -> 2263
13:34:10:138 -> 2062
13:34:10:147 -> 2423
13:34:10:157 -> 1926
13:34:10:167 -> 2067
13:34:10:177 -> 2229
13:34:10:187 -> 2237
13:34:10:197 -> 2172
13:34:10:207 -> 2252
13:34:10:238 -> 2147
13:34:10:239 -> 2202
13:34:10:239 -> 2093
13:34:10:248 -> 2125
13:34:10:258 -> 2106
13:34:10:272 -> 2221
13:34:10:278 -> 2116
13:34:10:288 -> 2334
13:34:10:299 -> 1894
13:34:10:308 -> 2363
13:34:10:318 -> 2370
13:34:10:328 -> 2328
13:34:10:339 -> 2033
13:34:10:348 -> 2005
13:34:10:358 -> 1924
13:34:10:368 -> 2124
13:34:10:378 -> 1895
13:34:10:388 -> 2022
13:34:10:398 -> 1892
13:34:10:408 -> 1989
13:34:10:418 -> 1986
13:34:10:429 -> 2280
13:34:10:438 -> 1945
13:34:10:448 -> 2153
13:34:10:458 -> 2012
13:34:10:475 -> 2364
13:34:10:478 -> 1925
13:34:10:489 -> 2170
13:34:10:499 -> 1944
13:34:10:509 -> 2245
13:34:10:519 -> 1835
13:34:10:529 -> 2163
13:34:10:562 -> 1904
13:34:10:569 -> 2262
13:34:10:569 -> 1947
13:34:10:569 -> 2201
13:34:10:602 -> 1941
13:34:10:602 -> 2234
13:34:10:602 -> 1944
13:34:10:611 -> 2191
13:34:10:619 -> 1958
13:34:10:629 -> 2229
13:34:10:642 -> 1968
13:34:10:649 -> 2241
13:34:10:659 -> 1978
13:34:10:669 -> 2235
13:34:10:679 -> 1967
13:34:10:689 -> 2237
13:34:10:700 -> 1965
13:34:10:710 -> 2226
13:34:10:720 -> 1977
13:34:10:730 -> 2217
13:34:10:766 -> 1970
13:34:10:767 -> 2199
13:34:10:767 -> 1978
13:34:10:770 -> 2192
13:34:10:780 -> 1967
13:34:10:790 -> 2187
13:34:10:811 -> 1963
13:34:10:811 -> 2170
13:34:10:820 -> 1973
13:34:10:830 -> 2168
13:34:10:840 -> 1981
13:34:10:850 -> 2153
13:34:10:860 -> 1983
13:34:10:871 -> 2165
13:34:10:880 -> 1999
13:34:10:890 -> 2144
13:34:10:900 -> 1983
13:34:10:911 -> 2153
13:34:10:920 -> 2003
13:34:10:930 -> 2148
13:34:10:941 -> 2001
13:34:10:951 -> 2144
13:34:10:961 -> 1999
13:34:10:971 -> 2133
13:34:10:981 -> 1997
13:34:10:992 -> 2120
13:34:11:002 -> 1994
13:34:11:011 -> 2132
13:34:11:037 -> 2004
13:34:11:039 -> 2127
13:34:11:042 -> 2015
13:34:11:052 -> 2122
13:34:11:061 -> 2009
13:34:11:071 -> 2116
13:34:11:081 -> 2008
13:34:11:091 -> 2098
13:34:11:102 -> 2014
13:34:11:111 -> 2118
13:34:11:121 -> 2019
13:34:11:133 -> 2101
13:34:11:142 -> 2037
13:34:11:152 -> 2116
13:34:11:162 -> 2039
13:34:11:172 -> 2124
13:34:11:182 -> 2048
13:34:11:192 -> 2125
13:34:11:202 -> 2050
13:34:11:213 -> 2125
13:34:11:222 -> 2061
13:34:11:232 -> 2131
13:34:11:242 -> 2059
13:34:11:253 -> 2114
13:34:11:262 -> 2060
13:34:11:293 -> 2108
13:34:11:294 -> 2062
13:34:11:294 -> 2118
13:34:11:302 -> 2061
13:34:11:319 -> 2108
13:34:11:322 -> 2077
13:34:11:332 -> 2084
13:34:11:344 -> 2090
13:34:11:352 -> 2102
13:34:11:362 -> 2080
13:34:11:372 -> 2102
13:34:11:383 -> 2080
13:34:11:393 -> 2096
13:34:11:403 -> 2086
13:34:11:413 -> 2095
13:34:11:423 -> 2085
13:34:11:433 -> 2105
13:34:11:443 -> 2093
13:34:11:453 -> 2078
13:34:11:463 -> 2081
13:34:11:473 -> 2074
13:34:11:483 -> 2091
13:34:11:493 -> 2065
13:34:11:503 -> 2089
13:34:11:513 -> 2078
13:34:11:523 -> 2080
13:34:11:533 -> 2068
13:34:11:543 -> 2085
13:34:11:559 -> 2065
13:34:11:563 -> 2087
13:34:11:573 -> 2064
13:34:11:585 -> 2083
13:34:11:593 -> 2068
13:34:11:604 -> 2073
13:34:11:614 -> 2068
13:34:11:624 -> 2081
13:34:11:634 -> 2053
13:34:11:644 -> 2089
13:34:11:654 -> 2040
13:34:11:664 -> 2111
13:34:11:674 -> 2035
13:34:11:684 -> 2133
13:34:11:694 -> 1998
13:34:11:704 -> 2134
13:34:11:714 -> 1993
13:34:11:724 -> 2106
13:34:11:734 -> 2014
13:34:11:744 -> 2102
13:34:11:754 -> 2022
13:34:11:766 -> 2157
13:34:11:776 -> 1959
13:34:11:784 -> 2110
13:34:11:841 -> 2052
13:34:11:843 -> 2111
13:34:11:843 -> 2053
13:34:11:843 -> 2088
13:34:11:843 -> 1994
13:34:11:845 -> 2024
13:34:11:855 -> 2085
13:34:11:871 -> 2044
13:34:11:875 -> 2080
13:34:11:885 -> 2119
13:34:11:895 -> 2017
13:34:11:906 -> 2110
13:34:11:915 -> 2029
13:34:11:925 -> 2149
13:34:11:935 -> 2107
13:34:11:945 -> 2094
13:34:11:955 -> 1969
13:34:11:966 -> 2167
13:34:11:975 -> 2092
13:34:11:985 -> 2393
13:34:11:995 -> 2028
13:34:12:005 -> 2015
13:34:12:016 -> 2094
13:34:12:025 -> 2198
13:34:12:041 -> 2242
13:34:12:045 -> 2116
13:34:12:056 -> 1918
13:34:12:066 -> 2247
13:34:12:076 -> 1965
13:34:12:086 -> 1906
13:34:12:096 -> 2074
13:34:12:106 -> 2186
13:34:12:116 -> 1719
13:34:12:127 -> 2212
13:34:12:161 -> 1914
13:34:12:161 -> 2145
13:34:12:161 -> 1961
13:34:12:178 -> 2085
13:34:12:178 -> 1859
13:34:12:207 -> 2021
13:34:12:207 -> 1820
13:34:12:207 -> 2421
13:34:12:216 -> 1975
13:34:12:226 -> 1977
13:34:12:253 -> 1926
13:34:12:256 -> 2170
13:34:12:256 -> 1996
13:34:12:267 -> 2259
13:34:12:277 -> 2072
13:34:12:287 -> 2193
13:34:12:300 -> 2044
13:34:12:307 -> 2217
13:34:12:317 -> 1885
13:34:12:327 -> 2179
13:34:12:372 -> 1846
13:34:12:374 -> 2348
13:34:12:374 -> 1937
13:34:12:374 -> 2195
13:34:12:377 -> 1829
13:34:12:388 -> 2232
13:34:12:397 -> 1936
13:34:12:407 -> 1977
13:34:12:418 -> 1878
13:34:12:427 -> 2239
13:34:12:437 -> 1811
13:34:12:447 -> 1927
13:34:12:457 -> 1919
13:34:12:468 -> 2212
13:34:12:477 -> 2000
13:34:12:487 -> 2167
13:34:12:499 -> 2165
13:34:12:508 -> 2285
13:34:12:518 -> 1781
13:34:12:528 -> 2128
13:34:12:538 -> 2100
13:34:12:549 -> 2739
13:34:12:558 -> 2109
13:34:12:568 -> 2186
13:34:12:578 -> 1684
13:34:12:588 -> 2305
13:34:12:598 -> 2216
13:34:12:608 -> 2158
13:34:12:623 -> 2039
13:34:12:628 -> 1949
13:34:12:639 -> 2172
13:34:12:648 -> 2364
13:34:12:658 -> 1894
13:34:12:668 -> 2157
13:34:12:678 -> 1820
13:34:12:688 -> 1935
13:34:12:698 -> 2122
13:34:12:708 -> 2430
13:34:12:718 -> 1832
13:34:12:729 -> 2249
13:34:12:739 -> 2134
13:34:12:749 -> 2091
13:34:12:759 -> 2095
13:34:12:769 -> 2251
13:34:12:779 -> 1956
13:34:12:789 -> 2287
13:34:12:799 -> 2087
13:34:12:809 -> 2117
13:34:12:819 -> 2107
13:34:12:829 -> 2132
13:34:12:842 -> 1894
13:34:12:849 -> 2134
13:34:12:859 -> 2213
13:34:12:869 -> 2331
13:34:12:902 -> 1830
13:34:12:903 -> 1967
13:34:12:903 -> 1971
13:34:12:909 -> 2500
13:34:12:920 -> 1849
13:34:12:930 -> 2405
13:34:12:940 -> 2031
13:34:12:950 -> 2228
13:34:12:960 -> 2042
13:34:12:970 -> 2140
13:34:12:980 -> 1893
13:34:12:990 -> 2331
13:34:13:001 -> 1897
13:34:13:010 -> 1801
13:34:13:020 -> 1703
13:34:13:030 -> 2237
13:34:13:054 -> 2145
13:34:13:057 -> 2402
13:34:13:060 -> 2250
13:34:13:071 -> 2236
13:34:13:081 -> 1972
13:34:13:091 -> 2321
13:34:13:100 -> 2237
13:34:13:110 -> 1918
13:34:13:120 -> 1924
13:34:13:131 -> 1890
13:34:13:140 -> 1949
13:34:13:153 -> 2225
13:34:13:163 -> 1975
13:34:13:171 -> 1611
13:34:13:181 -> 2249
13:34:13:191 -> 1916
13:34:13:201 -> 2179
13:34:13:211 -> 2328
13:34:13:221 -> 2115
13:34:13:231 -> 2051
13:34:13:241 -> 1834
13:34:13:251 -> 1990
13:34:13:261 -> 2002
13:34:13:271 -> 1853
13:34:13:281 -> 1958
13:34:13:291 -> 1993
13:34:13:309 -> 2368
13:34:13:311 -> 2175
13:34:13:321 -> 2055
13:34:13:331 -> 2200
13:34:13:341 -> 2216
13:34:13:351 -> 2076
13:34:13:361 -> 2080
13:34:13:371 -> 1991
13:34:13:382 -> 2123
13:34:13:391 -> 2161
13:34:13:434 -> 2045
13:34:13:435 -> 2133
13:34:13:435 -> 2030
13:34:13:435 -> 2164
13:34:13:442 -> 2115
13:34:13:452 -> 2027
13:34:13:462 -> 2128
13:34:13:472 -> 2104
13:34:13:482 -> 2065
13:34:13:492 -> 2162
13:34:13:502 -> 2124
13:34:13:524 -> 2008
13:34:13:525 -> 2137
13:34:13:532 -> 2131
13:34:13:543 -> 2062
13:34:13:552 -> 2045
13:34:13:562 -> 2034
13:34:13:572 -> 2023
13:34:13:582 -> 2081
13:34:13:592 -> 2081
13:34:13:602 -> 2049
13:34:13:613 -> 2058
13:34:13:623 -> 2044
13:34:13:633 -> 2087
13:34:13:643 -> 2106
13:34:13:653 -> 2096
13:34:13:663 -> 2023
13:34:13:673 -> 2077
13:34:13:685 -> 2078
13:34:13:693 -> 2054
13:34:13:703 -> 2096
13:34:13:713 -> 2062
13:34:13:723 -> 2108
13:34:13:733 -> 2078
13:34:13:743 -> 2108
13:34:13:753 -> 2073
13:34:13:772 -> 2104
13:34:13:774 -> 2086
13:34:13:783 -> 2103
13:34:13:795 -> 2043
13:34:13:803 -> 2116
13:34:13:813 -> 2018
13:34:13:823 -> 2135
13:34:13:833 -> 2060
13:34:13:843 -> 2131
13:34:13:853 -> 1981
13:34:13:864 -> 2160
13:34:13:874 -> 1993
13:34:13:884 -> 2136
13:34:13:894 -> 2023
13:34:13:904 -> 2125
13:34:13:914 -> 2026
13:34:13:924 -> 2112
13:34:13:956 -> 2029
13:34:13:957 -> 2100
13:34:13:957 -> 2055
13:34:13:964 -> 2097
13:34:13:974 -> 2061
13:34:13:986 -> 2073
13:34:13:994 -> 2057
13:34:14:004 -> 2078
13:34:14:014 -> 2082
13:34:14:025 -> 2074
13:34:14:044 -> 2093
13:34:14:078 -> 2080
13:34:14:078 -> 2067
13:34:14:078 -> 2098
13:34:14:078 -> 2073
13:34:14:119 -> 2102
13:34:14:119 -> 2105
13:34:14:119 -> 2074
13:34:14:119 -> 2092
13:34:14:159 -> 2086
13:34:14:159 -> 2087
13:34:14:159 -> 2089
13:34:14:159 -> 2098
13:34:14:166 -> 2092
13:34:14:175 -> 2077
13:34:14:185 -> 2103
13:34:14:195 -> 2058
13:34:14:205 -> 2113
13:34:14:216 -> 2047
13:34:14:225 -> 2123
13:34:14:235 -> 2035
13:34:14:245 -> 2127
13:34:14:255 -> 2040
13:34:14:265 -> 2121
13:34:14:275 -> 2043
13:34:14:286 -> 2122
13:34:14:295 -> 2048
13:34:14:306 -> 2100
13:34:14:316 -> 2042
13:34:14:326 -> 2119
13:34:14:336 -> 2067
13:34:14:346 -> 2086
13:34:14:356 -> 2051
13:34:14:366 -> 2098
13:34:14:376 -> 2042
13:34:14:386 -> 2119
13:34:14:396 -> 2031
13:34:14:406 -> 2118
13:34:14:427 -> 2007
13:34:14:429 -> 2126
13:34:14:438 -> 2020
13:34:14:446 -> 2148
13:34:14:482 -> 2000
13:34:14:483 -> 2141
13:34:14:483 -> 2018
13:34:14:486 -> 2160
13:34:14:496 -> 1989
13:34:14:506 -> 2145
13:34:14:516 -> 2007
13:34:14:527 -> 2157
13:34:14:539 -> 2001
13:34:14:547 -> 2182
13:34:14:557 -> 1983
13:34:14:567 -> 2171
13:34:14:577 -> 1942
13:34:14:587 -> 2184
13:34:14:597 -> 1987
13:34:14:607 -> 2183
13:34:14:617 -> 1992
13:34:14:627 -> 2164
13:34:14:637 -> 1967
13:34:14:648 -> 2195
13:34:14:657 -> 1973
13:34:14:669 -> 2180
13:34:14:678 -> 1955
13:34:14:687 -> 2190
13:34:14:697 -> 1958
13:34:14:711 -> 2206
13:34:14:718 -> 1950
13:34:14:728 -> 2213
13:34:14:737 -> 1959
13:34:14:747 -> 2222
13:34:14:758 -> 1949
13:34:14:768 -> 2215
13:34:14:778 -> 1946
13:34:14:788 -> 2217
13:34:14:798 -> 1969
13:34:14:808 -> 2233
13:34:14:818 -> 1956
13:34:14:828 -> 2239
13:34:14:838 -> 1939
13:34:14:848 -> 2266
13:34:14:858 -> 1957
13:34:14:868 -> 2169
13:34:14:878 -> 1963
13:34:14:888 -> 2287
13:34:14:899 -> 1932
13:34:14:908 -> 2233
13:34:14:918 -> 1929
13:34:14:928 -> 2274
13:34:14:943 -> 1968
13:34:14:950 -> 2186
13:34:14:958 -> 1966
13:34:14:968 -> 2194
13:34:14:979 -> 1910
13:34:15:016 -> 2277
13:34:15:026 -> 1943
13:34:15:026 -> 2176
13:34:15:026 -> 1877
13:34:15:029 -> 2180
13:34:15:039 -> 2016
13:34:15:049 -> 2220
13:34:15:059 -> 1920
13:34:15:070 -> 2285
13:34:15:079 -> 1936
13:34:15:089 -> 2162
13:34:15:100 -> 2045
13:34:15:119 -> 1777
13:34:15:109 -> 1961
13:34:15:129 -> 2203
13:34:15:141 -> 1877
13:34:15:149 -> 2253
13:34:15:159 -> 1979
13:34:15:172 -> 2320
13:34:15:179 -> 2053
13:34:15:190 -> 2129
13:34:15:200 -> 1945
13:34:15:209 -> 1944
13:34:15:222 -> 1864
13:34:15:230 -> 2231
13:34:15:240 -> 2191
13:34:15:250 -> 2065
13:34:15:260 -> 1977
13:34:15:270 -> 2008
13:34:15:280 -> 1848
13:34:15:290 -> 1907
13:34:15:300 -> 2347
13:34:15:310 -> 2211
13:34:15:320 -> 1912
13:34:15:330 -> 2103
13:34:15:340 -> 1907
13:34:15:350 -> 2241
13:34:15:360 -> 1744
13:34:15:370 -> 2119
13:34:15:391 -> 1870
13:34:15:394 -> 2250
13:34:15:401 -> 2356
13:34:15:410 -> 2208
13:34:15:420 -> 1835
13:34:15:430 -> 2124
13:34:15:441 -> 1651
13:34:15:451 -> 2190
13:34:15:461 -> 2150
13:34:15:471 -> 2084
13:34:15:481 -> 2420
13:34:15:491 -> 2142
13:34:15:501 -> 1951
13:34:15:511 -> 2081
13:34:15:543 -> 2273
13:34:15:543 -> 2083
13:34:15:543 -> 1876
13:34:15:551 -> 2173
13:34:15:562 -> 2079
13:34:15:571 -> 1990
13:34:15:581 -> 2032
13:34:15:591 -> 1994
13:34:15:601 -> 1972
13:34:15:612 -> 2062
13:34:15:628 -> 2113
13:34:15:632 -> 2022
13:34:15:642 -> 1977
13:34:15:651 -> 2139
13:34:15:662 -> 2038
13:34:15:672 -> 2371
13:34:15:684 -> 2165
13:34:15:692 -> 2156
13:34:15:702 -> 2197
13:34:15:729 -> 2241
13:34:15:729 -> 2059
13:34:15:750 -> 2187
13:34:15:750 -> 1996
13:34:15:779 -> 2178
13:34:15:779 -> 2102
13:34:15:779 -> 1955
13:34:15:798 -> 2116
13:34:15:798 -> 2350
13:34:15:838 -> 1973
13:34:15:838 -> 2115
13:34:15:838 -> 1940
13:34:15:844 -> 1987
13:34:15:844 -> 2047
13:34:15:852 -> 2189
13:34:15:862 -> 2094
13:34:15:872 -> 2079
13:34:15:882 -> 2145
13:34:15:892 -> 2218
13:34:15:902 -> 2123
13:34:15:913 -> 2106
13:34:15:925 -> 2053
13:34:15:933 -> 1995
13:34:15:943 -> 2086
13:34:15:956 -> 2148
13:34:15:963 -> 2052
13:34:15:974 -> 2092
13:34:15:983 -> 2463
13:34:15:993 -> 2018
13:34:16:004 -> 2066
13:34:16:013 -> 2075
13:34:16:023 -> 2250
13:34:16:033 -> 1932
13:34:16:075 -> 2108
13:34:16:076 -> 1918
13:34:16:076 -> 2185
13:34:16:076 -> 1897
13:34:16:083 -> 2084
13:34:16:094 -> 2055
13:34:16:104 -> 2224
13:34:16:114 -> 1981
13:34:16:126 -> 2151
13:34:16:134 -> 2014
13:34:16:144 -> 2143
13:34:16:154 -> 1994
13:34:16:164 -> 2158
13:34:16:174 -> 2183
13:34:16:184 -> 2003
13:34:16:194 -> 2138
13:34:16:204 -> 1945
13:34:16:214 -> 2028
13:34:16:224 -> 2077
13:34:16:242 -> 2082
13:34:16:244 -> 1997
13:34:16:256 -> 1983
13:34:16:264 -> 2010
13:34:16:274 -> 2371
13:34:16:284 -> 2050
13:34:16:294 -> 2131
13:34:16:304 -> 2019
13:34:16:315 -> 2196
13:34:16:324 -> 2053
13:34:16:338 -> 2147
13:34:16:348 -> 1952
13:34:16:355 -> 2165
13:34:16:365 -> 2155
13:34:16:375 -> 2147
13:34:16:385 -> 2134
13:34:16:398 -> 2051
13:34:16:405 -> 2254
13:34:16:415 -> 1847
13:34:16:425 -> 2105
13:34:16:435 -> 2147
13:34:16:445 -> 2268
13:34:16:455 -> 1917
13:34:16:465 -> 2149
13:34:16:475 -> 1953
13:34:16:485 -> 2145
13:34:16:495 -> 2146
13:34:16:505 -> 2340
13:34:16:523 -> 1870
13:34:16:525 -> 2046
13:34:16:536 -> 2016
13:34:16:546 -> 1962
13:34:16:555 -> 2103
13:34:16:567 -> 2143
13:34:16:597 -> 2025
13:34:16:599 -> 2006
13:34:16:599 -> 1907
13:34:16:606 -> 2141
13:34:16:616 -> 1918
13:34:16:626 -> 2162
13:34:16:636 -> 1986
13:34:16:646 -> 2144
13:34:16:656 -> 1990
13:34:16:666 -> 2141
13:34:16:676 -> 2004
13:34:16:686 -> 2222
13:34:16:696 -> 2035
13:34:16:706 -> 2188
13:34:16:716 -> 2000
13:34:16:726 -> 2144
13:34:16:736 -> 1982
13:34:16:746 -> 2144
13:34:16:756 -> 1997
13:34:16:766 -> 2162
13:34:16:787 -> 1993
13:34:16:788 -> 2172
13:34:16:798 -> 1981
13:34:16:807 -> 2169
13:34:16:817 -> 1997
13:34:16:827 -> 2171
13:34:16:837 -> 1980
13:34:16:847 -> 2177
13:34:16:857 -> 1975
13:34:16:867 -> 2176
13:34:16:877 -> 1991
13:34:16:887 -> 2177
13:34:16:897 -> 1961
13:34:16:907 -> 2194
13:34:16:918 -> 1988
13:34:16:927 -> 2221
13:34:16:937 -> 1959
13:34:16:948 -> 2230
13:34:16:957 -> 1940
13:34:16:967 -> 2224
13:34:16:977 -> 1941
13:34:16:987 -> 2241
13:34:17:005 -> 1920
13:34:17:008 -> 2252
13:34:17:018 -> 1933
13:34:17:029 -> 2258
13:34:17:038 -> 1932
13:34:17:048 -> 2245
13:34:17:058 -> 1934
13:34:17:068 -> 2252
13:34:17:079 -> 1934
13:34:17:088 -> 2227
13:34:17:124 -> 1944
13:34:17:125 -> 2249
13:34:17:125 -> 1942
13:34:17:128 -> 2238
13:34:17:138 -> 1945
13:34:17:150 -> 2226
13:34:17:158 -> 1952
13:34:17:168 -> 2223
13:34:17:178 -> 1895
13:34:17:188 -> 2205
13:34:17:198 -> 1924
13:34:17:208 -> 2207
13:34:17:231 -> 1933
13:34:17:253 -> 2200
13:34:17:253 -> 1941
13:34:17:253 -> 2187
13:34:17:284 -> 1924
13:34:17:284 -> 2177
13:34:17:284 -> 1937
13:34:17:289 -> 2168
13:34:17:301 -> 1924
13:34:17:313 -> 2171
13:34:17:323 -> 1947
13:34:17:329 -> 2164
13:34:17:339 -> 1934
13:34:17:350 -> 2175
13:34:17:359 -> 1973
13:34:17:369 -> 2181
13:34:17:380 -> 1972
13:34:17:392 -> 2169
13:34:17:399 -> 1974
13:34:17:410 -> 2162
13:34:17:419 -> 1977
13:34:17:430 -> 2156
13:34:17:439 -> 1978
13:34:17:450 -> 2147
13:34:17:460 -> 1990
13:34:17:470 -> 2160
13:34:17:479 -> 1991
13:34:17:490 -> 2152
13:34:17:500 -> 1999
13:34:17:510 -> 2172
13:34:17:520 -> 2009
13:34:17:530 -> 2160
13:34:17:542 -> 2019
13:34:17:550 -> 2163
13:34:17:560 -> 2026
13:34:17:573 -> 2147
13:34:17:580 -> 2023
13:34:17:590 -> 2137
13:34:17:600 -> 2046
13:34:17:610 -> 2135
13:34:17:620 -> 2041
13:34:17:647 -> 2143
13:34:17:650 -> 2049
13:34:17:651 -> 2125
13:34:17:660 -> 2062
13:34:17:670 -> 2123
13:34:17:681 -> 2069
13:34:17:691 -> 2135
13:34:17:701 -> 2067
13:34:17:711 -> 2111
13:34:17:721 -> 2062
13:34:17:731 -> 2119
13:34:17:741 -> 2066
13:34:17:751 -> 2114
13:34:17:762 -> 2060
13:34:17:772 -> 2104
13:34:17:781 -> 2081
13:34:17:791 -> 2115
13:34:17:802 -> 2076
13:34:17:811 -> 2105
13:34:17:821 -> 2086
13:34:17:831 -> 2100
13:34:17:841 -> 2075
13:34:17:852 -> 2097
13:34:17:861 -> 2099
13:34:17:871 -> 2030
13:34:17:882 -> 2093
13:34:17:891 -> 2116
13:34:17:901 -> 2074
13:34:17:912 -> 2080
13:34:17:922 -> 2083
13:34:17:932 -> 2082
13:34:17:942 -> 2089
13:34:17:952 -> 2102
13:34:17:962 -> 2074
13:34:17:972 -> 2084
13:34:17:989 -> 2018
13:34:17:992 -> 2069
13:34:18:002 -> 2065
13:34:18:012 -> 2051
13:34:18:022 -> 2069
13:34:18:032 -> 2096
13:34:18:042 -> 2095
13:34:18:052 -> 1966
13:34:18:062 -> 2140
13:34:18:072 -> 1992
13:34:18:082 -> 2089
13:34:18:092 -> 2094
13:34:18:102 -> 2172
13:34:18:112 -> 2107
13:34:18:122 -> 2046
13:34:18:132 -> 2089
13:34:18:142 -> 2156
13:34:18:173 -> 2074
13:34:18:174 -> 2154
13:34:18:174 -> 2098
13:34:18:183 -> 2154
13:34:18:193 -> 2058
13:34:18:203 -> 2259
13:34:18:213 -> 1953
13:34:18:223 -> 2117
13:34:18:242 -> 2054
13:34:18:243 -> 2074
13:34:18:254 -> 1980
13:34:18:263 -> 2109
13:34:18:275 -> 1815
13:34:18:283 -> 2224
13:34:18:293 -> 1994
13:34:18:303 -> 2265
13:34:18:313 -> 1922
13:34:18:323 -> 2392
13:34:18:333 -> 2054
13:34:18:343 -> 2067
13:34:18:353 -> 1923
13:34:18:363 -> 2190
13:34:18:373 -> 2213
13:34:18:383 -> 1946
13:34:18:394 -> 2052
13:34:18:404 -> 2045
13:34:18:414 -> 2059
13:34:18:424 -> 2058
13:34:18:434 -> 2399
13:34:18:444 -> 1973
13:34:18:454 -> 1913
13:34:18:468 -> 2008
13:34:18:474 -> 2352
13:34:18:484 -> 2067
13:34:18:494 -> 2137
13:34:18:517 -> 2110
13:34:18:520 -> 2225
13:34:18:525 -> 2091
13:34:18:534 -> 2101
13:34:18:545 -> 1772
13:34:18:559 -> 2078
13:34:18:565 -> 1933
13:34:18:574 -> 2010
13:34:18:584 -> 1981
13:34:18:595 -> 2323
13:34:18:604 -> 2349
13:34:18:615 -> 1913
13:34:18:625 -> 1882
13:34:18:635 -> 2070
13:34:18:645 -> 2214
13:34:18:655 -> 1977
13:34:18:665 -> 2156
13:34:18:694 -> 2005
13:34:18:696 -> 2051
13:34:18:696 -> 1796
13:34:18:705 -> 1928
13:34:18:715 -> 2107
13:34:18:725 -> 2253
13:34:18:735 -> 2220
13:34:18:746 -> 2007
13:34:18:755 -> 1954
13:34:18:767 -> 2150
13:34:18:775 -> 1976
13:34:18:785 -> 2242
13:34:18:795 -> 2267
13:34:18:805 -> 2205
13:34:18:815 -> 1902
13:34:18:826 -> 2104
13:34:18:836 -> 2277
13:34:18:846 -> 2076
13:34:18:856 -> 1878
13:34:18:866 -> 2030
13:34:18:876 -> 1942
13:34:18:901 -> 2159
13:34:18:937 -> 1729
13:34:18:937 -> 2219
13:34:18:937 -> 1978
13:34:18:937 -> 2142
13:34:18:937 -> 1962
13:34:18:966 -> 2188
13:34:18:966 -> 1990
13:34:18:977 -> 2013
13:34:18:977 -> 1972
13:34:18:986 -> 2219
13:34:19:002 -> 1987
13:34:19:019 -> 2014
13:34:19:019 -> 2132
13:34:19:026 -> 2115
13:34:19:036 -> 1748
13:34:19:046 -> 2113
13:34:19:056 -> 2003
13:34:19:067 -> 2201
13:34:19:077 -> 2051
13:34:19:087 -> 2341
13:34:19:103 -> 2026
13:34:19:107 -> 2222
13:34:19:117 -> 2008
13:34:19:128 -> 2133
13:34:19:140 -> 1793
13:34:19:147 -> 2269
13:34:19:157 -> 2004
13:34:19:167 -> 2225
13:34:19:177 -> 1836
13:34:19:187 -> 2293
13:34:19:224 -> 1989
13:34:19:227 -> 2242
13:34:19:227 -> 1943
13:34:19:228 -> 2286
13:34:19:237 -> 1914
13:34:19:247 -> 2127
13:34:19:257 -> 1923
13:34:19:267 -> 2180
13:34:19:277 -> 1987
13:34:19:288 -> 2182
13:34:19:299 -> 1932
13:34:19:308 -> 2111
13:34:19:318 -> 1851
13:34:19:328 -> 2148
13:34:19:338 -> 2032
13:34:19:348 -> 2275
13:34:19:358 -> 1974
13:34:19:373 -> 2136
13:34:19:378 -> 1983
13:34:19:388 -> 2333
13:34:19:399 -> 2205
13:34:19:408 -> 2073
13:34:19:418 -> 1887
13:34:19:428 -> 2291
13:34:19:438 -> 2197
13:34:19:449 -> 2200
13:34:19:458 -> 1886
13:34:19:468 -> 2251
13:34:19:478 -> 2067
13:34:19:488 -> 2121
13:34:19:499 -> 2124
13:34:19:508 -> 2026
13:34:19:518 -> 1820
13:34:19:529 -> 2130
13:34:19:539 -> 2002
13:34:19:549 -> 2325
13:34:19:559 -> 1911
13:34:19:569 -> 2113
13:34:19:579 -> 2145
13:34:19:589 -> 2063
13:34:19:599 -> 1894
13:34:19:609 -> 2176
13:34:19:619 -> 1991
13:34:19:629 -> 2134
13:34:19:639 -> 1912
13:34:19:653 -> 2233
13:34:19:659 -> 2021
13:34:19:669 -> 2126
13:34:19:679 -> 1925
13:34:19:689 -> 2170
13:34:19:699 -> 1989
13:34:19:709 -> 2196
13:34:19:719 -> 2024
13:34:19:758 -> 2133
13:34:19:759 -> 1827
13:34:19:759 -> 2099
13:34:19:760 -> 1991
13:34:19:770 -> 2137
13:34:19:780 -> 2046
13:34:19:790 -> 2167
13:34:19:800 -> 2021
13:34:19:810 -> 2152
13:34:19:820 -> 2051
13:34:19:830 -> 2170
13:34:19:842 -> 2058
13:34:19:851 -> 2175
13:34:19:860 -> 2067
13:34:19:880 -> 2151
13:34:19:881 -> 2041
13:34:19:890 -> 2136
13:34:19:900 -> 2074
13:34:19:910 -> 2138
13:34:19:920 -> 2072
13:34:19:932 -> 2113
13:34:19:941 -> 2064
13:34:19:950 -> 2113
13:34:19:960 -> 2071
13:34:19:970 -> 2109
13:34:19:981 -> 2088
13:34:19:991 -> 2110
13:34:20:001 -> 2026
13:34:20:011 -> 2081
13:34:20:021 -> 2101
13:34:20:031 -> 2083
13:34:20:041 -> 2104
13:34:20:051 -> 2091
13:34:20:083 -> 2082
13:34:20:086 -> 2088
13:34:20:086 -> 2078
13:34:20:091 -> 2125
13:34:20:104 -> 2003
13:34:20:111 -> 2096
13:34:20:121 -> 2086
13:34:20:131 -> 2069
13:34:20:141 -> 2081
13:34:20:151 -> 2060
13:34:20:162 -> 2081
13:34:20:171 -> 2064
13:34:20:182 -> 2084
13:34:20:192 -> 2070
13:34:20:202 -> 2094
13:34:20:212 -> 2073
13:34:20:222 -> 2087
13:34:20:232 -> 2056
13:34:20:242 -> 2098
13:34:20:252 -> 2066
13:34:20:292 -> 2093
13:34:20:294 -> 2070
13:34:20:294 -> 2109
13:34:20:294 -> 2066
13:34:20:302 -> 2095
13:34:20:312 -> 2061
13:34:20:322 -> 2125
13:34:20:334 -> 2078
13:34:20:342 -> 2137
13:34:20:352 -> 2017
13:34:20:363 -> 2138
13:34:20:372 -> 1991
13:34:20:399 -> 2158
13:34:20:414 -> 1998
13:34:20:414 -> 2137
13:34:20:414 -> 1991
13:34:20:435 -> 2131
13:34:20:435 -> 2020
13:34:20:466 -> 2131
13:34:20:466 -> 2028
13:34:20:466 -> 2115
13:34:20:480 -> 2058
13:34:20:508 -> 2099
13:34:20:508 -> 2067
13:34:20:508 -> 2086
13:34:20:520 -> 2080
13:34:20:523 -> 2093
13:34:20:533 -> 2079
13:34:20:543 -> 2077
13:34:20:553 -> 2093
13:34:20:563 -> 2091
13:34:20:573 -> 2068
13:34:20:584 -> 2107
13:34:20:604 -> 2072
13:34:20:609 -> 2103
13:34:20:613 -> 2088
13:34:20:623 -> 2106
13:34:20:633 -> 2096
13:34:20:643 -> 2099
13:34:20:653 -> 2107
13:34:20:664 -> 2096
13:34:20:674 -> 2109
13:34:20:684 -> 2098
13:34:20:700 -> 2099
13:34:20:704 -> 2112
13:34:20:714 -> 2075
13:34:20:724 -> 2125
13:34:20:734 -> 2065
13:34:20:747 -> 2127
13:34:20:754 -> 2055
13:34:20:764 -> 2103
13:34:20:774 -> 2059
13:34:20:784 -> 2089
13:34:20:817 -> 2065
13:34:20:823 -> 2102
13:34:20:823 -> 2064
13:34:20:825 -> 2091
13:34:20:835 -> 2076
13:34:20:845 -> 2070
13:34:20:855 -> 2062
13:34:20:865 -> 2088
13:34:20:876 -> 2053
13:34:20:885 -> 2079
13:34:20:896 -> 2020
13:34:20:905 -> 2088
13:34:20:915 -> 2025
13:34:20:925 -> 2104
13:34:20:935 -> 2002
13:34:20:945 -> 2114
13:34:20:955 -> 1989
13:34:20:966 -> 2119
13:34:20:975 -> 1972
13:34:20:985 -> 2116
13:34:20:995 -> 1958
13:34:21:005 -> 2125
13:34:21:015 -> 1972
13:34:21:025 -> 2147
13:34:21:044 -> 1963
13:34:21:047 -> 2146
13:34:21:055 -> 1957
13:34:21:066 -> 2151
13:34:21:075 -> 1956
13:34:21:086 -> 2143
13:34:21:096 -> 1956
13:34:21:108 -> 2148
13:34:21:122 -> 1940
13:34:21:127 -> 2154
13:34:21:137 -> 1974
13:34:21:152 -> 2144
13:34:21:157 -> 1976
13:34:21:167 -> 2167
13:34:21:176 -> 1981
13:34:21:186 -> 2205
13:34:21:196 -> 1928
13:34:21:206 -> 2207
13:34:21:216 -> 1974
13:34:21:226 -> 2231
13:34:21:236 -> 2001
13:34:21:246 -> 2162
13:34:21:256 -> 1991
13:34:21:266 -> 2209
13:34:21:276 -> 1979
13:34:21:286 -> 2182
13:34:21:305 -> 1924
13:34:21:306 -> 2219
13:34:21:341 -> 1981
13:34:21:343 -> 2299
13:34:21:343 -> 1977
13:34:21:347 -> 2163
13:34:21:357 -> 1993
13:34:21:367 -> 2216
13:34:21:377 -> 2013
13:34:21:387 -> 2345
13:34:21:397 -> 1995
13:34:21:407 -> 2053
13:34:21:417 -> 2013
13:34:21:427 -> 2428
13:34:21:437 -> 2041
13:34:21:447 -> 2356
13:34:21:457 -> 1641
13:34:21:467 -> 2284
13:34:21:477 -> 2156
13:34:21:487 -> 1972
13:34:21:497 -> 2113
13:34:21:507 -> 2444
13:34:21:523 -> 1842
13:34:21:528 -> 2160
13:34:21:538 -> 2386
13:34:21:549 -> 2358
13:34:21:558 -> 2204
13:34:21:568 -> 2244
13:34:21:578 -> 2083
13:34:21:588 -> 2359
13:34:21:598 -> 1686
13:34:21:608 -> 2274
13:34:21:618 -> 2016
13:34:21:628 -> 1847
13:34:21:638 -> 2037
13:34:21:648 -> 2149
13:34:21:658 -> 2073
13:34:21:668 -> 2163
13:34:21:678 -> 1787
13:34:21:688 -> 2365
13:34:21:698 -> 1976
13:34:21:708 -> 2492
13:34:21:718 -> 1939
13:34:21:729 -> 2387
13:34:21:738 -> 2121
13:34:21:755 -> 1966
13:34:21:759 -> 2150
13:34:21:769 -> 2142
13:34:21:779 -> 1905
13:34:21:789 -> 2195
13:34:21:799 -> 1997
13:34:21:812 -> 2167
13:34:21:819 -> 1976
13:34:21:829 -> 2006
13:34:21:839 -> 2085
13:34:21:873 -> 2136
13:34:21:875 -> 1876
13:34:21:875 -> 2048
13:34:21:879 -> 2116
13:34:21:890 -> 2307
13:34:21:900 -> 2098
13:34:21:909 -> 2051
13:34:21:920 -> 2171
13:34:21:929 -> 2091
13:34:21:939 -> 1778
13:34:21:949 -> 2192
13:34:21:960 -> 2005
13:34:21:969 -> 2286
13:34:21:980 -> 1921
13:34:21:990 -> 2134
13:34:22:000 -> 2183
13:34:22:010 -> 2116
13:34:22:029 -> 2107
13:34:22:033 -> 2215
13:34:22:040 -> 1869
13:34:22:051 -> 1953
13:34:22:062 -> 2115
13:34:22:070 -> 2057
13:34:22:080 -> 2056
13:34:22:090 -> 2331
13:34:22:100 -> 2062
13:34:22:110 -> 2111
13:34:22:120 -> 2138
13:34:22:130 -> 2079
13:34:22:140 -> 2035
13:34:22:150 -> 2043
13:34:22:160 -> 2227
13:34:22:170 -> 2113
13:34:22:180 -> 2201
13:34:22:190 -> 2054
13:34:22:200 -> 2083
13:34:22:211 -> 2227
13:34:22:221 -> 1890
13:34:22:231 -> 2106
13:34:22:245 -> 2026
13:34:22:255 -> 2231
13:34:22:282 -> 2089
13:34:22:282 -> 2070
13:34:22:282 -> 1947
13:34:22:314 -> 1886
13:34:22:314 -> 2038
13:34:22:314 -> 2041
13:34:22:324 -> 2045
13:34:22:332 -> 2115
13:34:22:351 -> 2204
13:34:22:363 -> 1992
13:34:22:363 -> 2259
13:34:22:371 -> 1911
13:34:22:395 -> 1986
13:34:22:397 -> 2101
13:34:22:401 -> 2116
13:34:22:411 -> 1993
13:34:22:421 -> 1951
13:34:22:433 -> 2033
13:34:22:443 -> 1838
13:34:22:452 -> 1767
13:34:22:462 -> 1907
13:34:22:472 -> 2040
13:34:22:482 -> 2202
13:34:22:492 -> 2021
13:34:22:502 -> 2121
13:34:22:512 -> 2135
13:34:22:522 -> 2133
13:34:22:532 -> 2005
13:34:22:542 -> 2147
13:34:22:560 -> 1958
13:34:22:562 -> 2171
13:34:22:572 -> 1940
13:34:22:582 -> 2267
13:34:22:593 -> 2151
13:34:22:605 -> 2017
13:34:22:612 -> 2020
13:34:22:622 -> 2046
13:34:22:632 -> 2072
13:34:22:643 -> 2124
13:34:22:653 -> 2173
13:34:22:663 -> 2094
13:34:22:673 -> 2020
13:34:22:683 -> 2263
13:34:22:693 -> 1860
13:34:22:703 -> 2096
13:34:22:713 -> 2010
13:34:22:723 -> 2079
13:34:22:733 -> 2122
13:34:22:744 -> 1940
13:34:22:753 -> 1996
13:34:22:772 -> 1968
13:34:22:773 -> 2089
13:34:22:783 -> 1909
13:34:22:793 -> 2165
13:34:22:803 -> 1838
13:34:22:813 -> 2200
13:34:22:823 -> 2196
13:34:22:833 -> 1778
13:34:22:843 -> 2117
13:34:22:853 -> 2057
13:34:22:863 -> 2060
13:34:22:875 -> 2055
13:34:22:883 -> 2141
13:34:22:894 -> 2060
13:34:22:923 -> 2150
13:34:22:925 -> 2037
13:34:22:925 -> 2139
13:34:22:934 -> 2046
13:34:22:944 -> 2150
13:34:22:955 -> 2043
13:34:22:968 -> 2121
13:34:22:974 -> 2072
13:34:22:984 -> 2124
13:34:22:995 -> 2010
13:34:23:004 -> 2151
13:34:23:014 -> 2047
13:34:23:024 -> 2122
13:34:23:034 -> 2067
13:34:23:044 -> 2109
13:34:23:057 -> 2006
13:34:23:065 -> 2086
13:34:23:075 -> 2036
13:34:23:085 -> 2046
13:34:23:094 -> 2052
13:34:23:104 -> 2096
13:34:23:114 -> 2030
13:34:23:125 -> 2101
13:34:23:135 -> 2015
13:34:23:145 -> 2136
13:34:23:155 -> 1979
13:34:23:165 -> 2131
13:34:23:175 -> 1988
13:34:23:185 -> 2133
13:34:23:195 -> 1983
13:34:23:205 -> 2132
13:34:23:215 -> 1958
13:34:23:225 -> 2128
13:34:23:235 -> 1950
13:34:23:245 -> 2128
13:34:23:255 -> 1948
13:34:23:265 -> 2148
13:34:23:275 -> 1948
13:34:23:285 -> 2131
13:34:23:295 -> 1924
13:34:23:305 -> 2124
13:34:23:316 -> 1957
13:34:23:325 -> 2113
13:34:23:335 -> 1963
13:34:23:346 -> 2132
13:34:23:356 -> 1954
13:34:23:366 -> 2162
13:34:23:376 -> 1950
13:34:23:386 -> 2168
13:34:23:396 -> 1947
13:34:23:406 -> 2177
13:34:23:417 -> 1939
13:34:23:448 -> 2201
13:34:23:450 -> 1942
13:34:23:450 -> 2211
13:34:23:456 -> 1943
13:34:23:466 -> 2196
13:34:23:476 -> 1923
13:34:23:491 -> 2223
13:34:23:496 -> 1933
13:34:23:506 -> 2230
13:34:23:517 -> 1915
13:34:23:526 -> 2230
13:34:23:537 -> 1927
13:34:23:546 -> 2241
13:34:23:557 -> 1927
13:34:23:566 -> 2244
13:34:23:577 -> 1925
13:34:23:587 -> 2247
13:34:23:597 -> 1940
13:34:23:607 -> 2248
13:34:23:617 -> 1937
