16:25:43:732 -> 2869.00
16:25:43:733 -> 2901.00
16:25:43:735 -> 2914.00
16:25:43:736 -> 2909.00
16:25:43:738 -> 2897.00
16:25:43:740 -> 2935.00
16:25:43:740 -> 2940.00
16:25:43:741 -> 2928.00
16:25:43:742 -> 2916.00
16:25:43:743 -> 2925.00
16:25:43:744 -> 2929.00
16:25:43:745 -> 2933.00
16:25:43:747 -> 2919.00
16:25:43:748 -> 2902.00
16:25:43:749 -> 2891.00
16:25:43:751 -> 2867.00
16:25:43:751 -> 2835.00
16:25:43:753 -> 2838.00
16:25:43:771 -> 2891.00
16:25:43:771 -> 2904.00
16:25:43:771 -> 2895.00
16:25:43:771 -> 2904.00
16:25:43:771 -> 2879.00
16:25:43:771 -> 2944.00
16:25:43:771 -> 2927.00
16:25:43:771 -> 2903.00
16:25:43:771 -> 2907.00
16:25:43:771 -> 2915.00
16:25:43:771 -> 2917.00
16:25:43:771 -> 2914.00
16:25:43:771 -> 2895.00
16:25:43:771 -> 2881.00
16:25:43:771 -> 2860.00
16:25:43:773 -> 2857.00
16:25:43:773 -> 2875.00
16:25:43:774 -> 2909.00
16:25:43:775 -> 2931.00
16:25:43:776 -> 2934.00
16:25:43:777 -> 2929.00
16:25:43:779 -> 2920.00
16:25:43:781 -> 2924.00
16:25:43:781 -> 2936.00
16:25:43:782 -> 2923.00
16:25:43:783 -> 2941.00
16:25:43:785 -> 2991.00
16:25:43:786 -> 2959.00
16:25:43:787 -> 2949.00
16:25:43:788 -> 2927.00
16:25:43:789 -> 2931.00
16:25:43:791 -> 2921.00
16:25:43:792 -> 2897.00
16:25:43:793 -> 2956.00
16:25:43:794 -> 2914.00
16:25:43:795 -> 2925.00
16:25:43:797 -> 2916.00
16:25:43:798 -> 2934.00
16:25:43:799 -> 2952.00
16:25:43:800 -> 2914.00
16:25:43:802 -> 2941.00
16:25:43:803 -> 2913.00
16:25:43:804 -> 2951.00
16:25:43:805 -> 2954.00
16:25:43:806 -> 2939.00
16:25:43:807 -> 2934.00
16:25:43:808 -> 2934.00
16:25:43:810 -> 2930.00
16:25:43:811 -> 2902.00
16:25:43:812 -> 2839.00
16:25:43:842 -> 2859.00
16:25:43:860 -> 2894.00
16:25:43:860 -> 2913.00
16:25:43:860 -> 2909.00
16:25:43:860 -> 2921.00
16:25:43:860 -> 2898.00
16:25:43:860 -> 2899.00
16:25:43:860 -> 2917.00
16:25:43:860 -> 2981.00
16:25:43:860 -> 2926.00
16:25:43:860 -> 2946.00
16:25:43:860 -> 2936.00
16:25:43:860 -> 2926.00
16:25:43:860 -> 2893.00
16:25:43:860 -> 2889.00
16:25:43:860 -> 2883.00
16:25:43:860 -> 2898.00
16:25:43:860 -> 2930.00
16:25:43:860 -> 2907.00
16:25:43:860 -> 2917.00
16:25:43:860 -> 2915.00
16:25:43:860 -> 2903.00
16:25:43:860 -> 2944.00
16:25:43:860 -> 2922.00
16:25:43:860 -> 2967.00
16:25:43:876 -> 2929.00
16:25:43:876 -> 2933.00
16:25:43:876 -> 2924.00
16:25:43:876 -> 2902.00
16:25:43:876 -> 2909.00
16:25:43:876 -> 2895.00
16:25:43:876 -> 2883.00
16:25:43:876 -> 2868.00
16:25:43:876 -> 2860.00
16:25:43:876 -> 2912.00
16:25:43:876 -> 2891.00
16:25:43:876 -> 2910.00
16:25:43:876 -> 2913.00
16:25:43:876 -> 2940.00
16:25:43:876 -> 2949.00
16:25:43:876 -> 2940.00
16:25:43:876 -> 2932.00
16:25:43:876 -> 2976.00
16:25:43:876 -> 2952.00
16:25:43:876 -> 2957.00
16:25:43:876 -> 2990.00
16:25:43:876 -> 2930.00
16:25:43:876 -> 2910.00
16:25:43:876 -> 2927.00
16:25:43:876 -> 2936.00
16:25:43:876 -> 2944.00
16:25:43:876 -> 2911.00
16:25:43:876 -> 2931.00
16:25:43:876 -> 2916.00
16:25:43:878 -> 2926.00
16:25:43:879 -> 2970.00
16:25:43:882 -> 2898.00
16:25:43:882 -> 2930.00
16:25:43:883 -> 2925.00
16:25:43:884 -> 2942.00
16:25:43:884 -> 2946.00
16:25:43:886 -> 2928.00
16:25:43:887 -> 2943.00
16:25:43:891 -> 2932.00
16:25:43:891 -> 2916.00
16:25:43:892 -> 2902.00
16:25:43:892 -> 2855.00
16:25:43:893 -> 2892.00
16:25:43:894 -> 2918.00
16:25:43:895 -> 2927.00
16:25:43:906 -> 2935.00
16:25:43:906 -> 2919.00
16:25:43:906 -> 2918.00
16:25:43:906 -> 2930.00
16:25:43:906 -> 2930.00
16:25:43:906 -> 2963.00
16:25:43:906 -> 2961.00
16:25:43:906 -> 2949.00
16:25:43:906 -> 2941.00
16:25:43:914 -> 2939.00
16:25:43:914 -> 2929.00
16:25:43:914 -> 2924.00
16:25:43:914 -> 2920.00
16:25:43:914 -> 2914.00
16:25:43:914 -> 2936.00
16:25:43:923 -> 2911.00
16:25:43:923 -> 2928.00
16:25:43:923 -> 2932.00
16:25:43:923 -> 2922.00
16:25:43:923 -> 2958.00
16:25:43:923 -> 2947.00
16:25:43:923 -> 2950.00
16:25:43:923 -> 2923.00
16:25:43:924 -> 2913.00
16:25:43:925 -> 2930.00
16:25:43:926 -> 2915.00
16:25:43:927 -> 2926.00
16:25:43:929 -> 2929.00
16:25:43:930 -> 2926.00
16:25:43:931 -> 2889.00
16:25:43:932 -> 2884.00
16:25:43:933 -> 2999.00
16:25:43:935 -> 2907.00
16:25:43:936 -> 2940.00
16:25:43:937 -> 2930.00
16:25:43:938 -> 2931.00
16:25:43:939 -> 2933.00
16:25:43:941 -> 2950.00
16:25:43:942 -> 2976.00
16:25:43:943 -> 2908.00
16:25:43:944 -> 2965.00
16:25:43:945 -> 2947.00
16:25:43:947 -> 2943.00
16:25:43:948 -> 2937.00
16:25:43:950 -> 2919.00
16:25:43:951 -> 2925.00
16:25:43:951 -> 2903.00
16:25:43:953 -> 2881.00
16:25:43:954 -> 2921.00
16:25:43:955 -> 2922.00
16:25:43:956 -> 2949.00
16:25:43:957 -> 2946.00
16:25:43:959 -> 2951.00
16:25:43:960 -> 2937.00
16:25:43:961 -> 2919.00
16:25:43:962 -> 2982.00
16:25:43:963 -> 2946.00
16:25:43:964 -> 2964.00
16:25:43:965 -> 2937.00
16:25:43:967 -> 2935.00
16:25:43:968 -> 2901.00
16:25:43:969 -> 2946.00
16:25:43:970 -> 2907.00
16:25:43:971 -> 2955.00
16:25:43:973 -> 2922.00
16:25:43:989 -> 2911.00
16:25:43:989 -> 2933.00
16:25:43:989 -> 2950.00
16:25:43:989 -> 2952.00
16:25:43:989 -> 2963.00
16:25:43:989 -> 2974.00
16:25:43:989 -> 2968.00
16:25:43:989 -> 2966.00
16:25:43:989 -> 2953.00
16:25:43:989 -> 2961.00
16:25:43:989 -> 2979.00
16:25:43:989 -> 2955.00
16:25:43:989 -> 2927.00
16:25:43:993 -> 2911.00
16:25:43:993 -> 2891.00
16:25:43:993 -> 2885.00
16:25:43:993 -> 2911.00
16:25:43:994 -> 2930.00
16:25:43:995 -> 2946.00
16:25:43:996 -> 2920.00
16:25:43:998 -> 2934.00
16:25:43:999 -> 2927.00
16:25:44:000 -> 2945.00
16:25:44:001 -> 2950.00
16:25:44:002 -> 2973.00
16:25:44:004 -> 2948.00
16:25:44:005 -> 2959.00
16:25:44:006 -> 2952.00
16:25:44:007 -> 2964.00
16:25:44:009 -> 2925.00
16:25:44:009 -> 2931.00
16:25:44:022 -> 2910.00
16:25:44:024 -> 2872.00
16:25:44:024 -> 2884.00
16:25:44:024 -> 2954.00
16:25:44:024 -> 2925.00
16:25:44:024 -> 2931.00
16:25:44:024 -> 2954.00
16:25:44:024 -> 2931.00
16:25:44:024 -> 2957.00
16:25:44:024 -> 2935.00
16:25:44:024 -> 2939.00
16:25:44:024 -> 2957.00
16:25:44:029 -> 2958.00
16:25:44:029 -> 2962.00
16:25:44:029 -> 2956.00
16:25:44:038 -> 2931.00
16:25:44:038 -> 2962.00
16:25:44:038 -> 2896.00
16:25:44:038 -> 2917.00
16:25:44:038 -> 2900.00
16:25:44:038 -> 2926.00
16:25:44:038 -> 2931.00
16:25:44:038 -> 2936.00
16:25:44:039 -> 2974.00
16:25:44:040 -> 2941.00
16:25:44:040 -> 2972.00
16:25:44:042 -> 2916.00
16:25:44:043 -> 2965.00
16:25:44:044 -> 2940.00
16:25:44:045 -> 2939.00
16:25:44:046 -> 2940.00
16:25:44:048 -> 2920.00
16:25:44:049 -> 2917.00
16:25:44:051 -> 2886.00
16:25:44:051 -> 2873.00
16:25:44:052 -> 2928.00
16:25:44:054 -> 2961.00
16:25:44:055 -> 2935.00
16:25:44:056 -> 2946.00
16:25:44:057 -> 2952.00
16:25:44:058 -> 2917.00
16:25:44:059 -> 2968.00
16:25:44:061 -> 2980.00
16:25:44:062 -> 2990.00
16:25:44:063 -> 3011.00
16:25:44:064 -> 2989.00
16:25:44:069 -> 2979.00
16:25:44:069 -> 2952.00
16:25:44:069 -> 2966.00
16:25:44:070 -> 2944.00
16:25:44:071 -> 2927.00
16:25:44:071 -> 2955.00
16:25:44:073 -> 2956.00
16:25:44:077 -> 2920.00
16:25:44:077 -> 2945.00
16:25:44:077 -> 2959.00
16:25:44:078 -> 2952.00
16:25:44:083 -> 2960.00
16:25:44:083 -> 2962.00
16:25:44:083 -> 2947.00
16:25:44:086 -> 2956.00
16:25:44:086 -> 2979.00
16:25:44:086 -> 2955.00
16:25:44:086 -> 2969.00
16:25:44:087 -> 2951.00
16:25:44:098 -> 2927.00
16:25:44:098 -> 2906.00
16:25:44:098 -> 2917.00
16:25:44:098 -> 2946.00
16:25:44:098 -> 2922.00
16:25:44:098 -> 2902.00
16:25:44:098 -> 2937.00
16:25:44:098 -> 2938.00
16:25:44:098 -> 2953.00
16:25:44:115 -> 2932.00
16:25:44:115 -> 2951.00
16:25:44:115 -> 2976.00
16:25:44:115 -> 2978.00
16:25:44:115 -> 2977.00
16:25:44:115 -> 2978.00
16:25:44:115 -> 2959.00
16:25:44:115 -> 2952.00
16:25:44:115 -> 2951.00
16:25:44:115 -> 2941.00
16:25:44:115 -> 2940.00
16:25:44:115 -> 2918.00
16:25:44:115 -> 2936.00
16:25:44:152 -> 2936.00
16:25:44:152 -> 2948.00
16:25:44:152 -> 2968.00
16:25:44:152 -> 2958.00
16:25:44:152 -> 2968.00
16:25:44:152 -> 2956.00
16:25:44:152 -> 2950.00
16:25:44:162 -> 2955.00
16:25:44:162 -> 2967.00
16:25:44:162 -> 2981.00
16:25:44:162 -> 2950.00
16:25:44:162 -> 2968.00
16:25:44:162 -> 2929.00
16:25:44:162 -> 2922.00
16:25:44:162 -> 2915.00
16:25:44:162 -> 2917.00
16:25:44:162 -> 2897.00
16:25:44:162 -> 2908.00
16:25:44:162 -> 2920.00
16:25:44:162 -> 2950.00
16:25:44:162 -> 2926.00
16:25:44:162 -> 2934.00
16:25:44:162 -> 2951.00
16:25:44:162 -> 3007.00
16:25:44:162 -> 2959.00
16:25:44:162 -> 2990.00
16:25:44:162 -> 2980.00
16:25:44:162 -> 2962.00
16:25:44:162 -> 2975.00
16:25:44:162 -> 2947.00
16:25:44:162 -> 2941.00
16:25:44:162 -> 2940.00
16:25:44:162 -> 2921.00
16:25:44:162 -> 2928.00
16:25:44:162 -> 2941.00
16:25:44:162 -> 2962.00
16:25:44:162 -> 2953.00
16:25:44:162 -> 2924.00
16:25:44:162 -> 2961.00
16:25:44:162 -> 2978.00
16:25:44:178 -> 2947.00
16:25:44:178 -> 2936.00
16:25:44:178 -> 2980.00
16:25:44:178 -> 2988.00
16:25:44:178 -> 2978.00
16:25:44:178 -> 2970.00
16:25:44:178 -> 2944.00
16:25:44:178 -> 2941.00
16:25:44:178 -> 2930.00
16:25:44:178 -> 2923.00
16:25:44:178 -> 2969.00
16:25:44:178 -> 2965.00
16:25:44:178 -> 2960.00
16:25:44:178 -> 2971.00
16:25:44:189 -> 2944.00
16:25:44:189 -> 2997.00
16:25:44:189 -> 2980.00
16:25:44:189 -> 3013.00
16:25:44:189 -> 2996.00
16:25:44:189 -> 2986.00
16:25:44:189 -> 2979.00
16:25:44:189 -> 2962.00
16:25:44:189 -> 2953.00
16:25:44:189 -> 2949.00
16:25:44:235 -> 2942.00
16:25:44:235 -> 2907.00
16:25:44:235 -> 2907.00
16:25:44:235 -> 2930.00
16:25:44:235 -> 2940.00
16:25:44:235 -> 2938.00
16:25:44:235 -> 2942.00
16:25:44:235 -> 2954.00
16:25:44:235 -> 2927.00
16:25:44:235 -> 2948.00
16:25:44:235 -> 2965.00
16:25:44:235 -> 3013.00
16:25:44:235 -> 2984.00
16:25:44:235 -> 2989.00
16:25:44:235 -> 3028.00
16:25:44:235 -> 2947.00
16:25:44:235 -> 2971.00
16:25:44:235 -> 2957.00
16:25:44:235 -> 2945.00
16:25:44:235 -> 2931.00
16:25:44:235 -> 2968.00
16:25:44:235 -> 2955.00
16:25:44:235 -> 2951.00
16:25:44:235 -> 2951.00
16:25:44:235 -> 2947.00
16:25:44:235 -> 2950.00
16:25:44:235 -> 2971.00
16:25:44:235 -> 2950.00
16:25:44:235 -> 2983.00
16:25:44:235 -> 2990.00
16:25:44:235 -> 2982.00
16:25:44:235 -> 2973.00
16:25:44:235 -> 2970.00
16:25:44:235 -> 2933.00
16:25:44:235 -> 2943.00
16:25:44:235 -> 2877.00
16:25:44:235 -> 2908.00
16:25:44:235 -> 2932.00
16:25:44:277 -> 2952.00
16:25:44:277 -> 2964.00
16:25:44:277 -> 2988.00
16:25:44:277 -> 2993.00
16:25:44:277 -> 2975.00
16:25:44:277 -> 2983.00
16:25:44:277 -> 2977.00
16:25:44:277 -> 2991.00
16:25:44:277 -> 2987.00
16:25:44:277 -> 2999.00
16:25:44:277 -> 2973.00
16:25:44:277 -> 2975.00
16:25:44:277 -> 2927.00
16:25:44:277 -> 2947.00
16:25:44:277 -> 2895.00
16:25:44:277 -> 2927.00
16:25:44:277 -> 2970.00
16:25:44:277 -> 2955.00
16:25:44:277 -> 2971.00
16:25:44:277 -> 3013.00
16:25:44:277 -> 2979.00
16:25:44:277 -> 2981.00
16:25:44:277 -> 2968.00
16:25:44:277 -> 2981.00
16:25:44:277 -> 2983.00
16:25:44:277 -> 2974.00
16:25:44:277 -> 2983.00
16:25:44:277 -> 2957.00
16:25:44:277 -> 2961.00
16:25:44:277 -> 2932.00
16:25:44:277 -> 2910.00
16:25:44:277 -> 2912.00
16:25:44:277 -> 2919.00
16:25:44:277 -> 2942.00
16:25:44:277 -> 2952.00
16:25:44:291 -> 2977.00
16:25:44:291 -> 2952.00
16:25:44:291 -> 2977.00
16:25:44:291 -> 2987.00
16:25:44:291 -> 3016.00
16:25:44:291 -> 3007.00
16:25:44:291 -> 2987.00
16:25:44:291 -> 2989.00
16:25:44:291 -> 2983.00
16:25:44:291 -> 2953.00
16:25:44:291 -> 2950.00
16:25:44:291 -> 2944.00
16:25:44:297 -> 2922.00
16:25:44:297 -> 2941.00
16:25:44:297 -> 2956.00
16:25:44:297 -> 2937.00
16:25:44:297 -> 2965.00
16:25:44:328 -> 2969.00
16:25:44:328 -> 2953.00
16:25:44:328 -> 2980.00
16:25:44:328 -> 2964.00
16:25:44:328 -> 2969.00
16:25:44:328 -> 2959.00
16:25:44:328 -> 2990.00
16:25:44:328 -> 2980.00
16:25:44:328 -> 2967.00
16:25:44:328 -> 2957.00
16:25:44:328 -> 2968.00
16:25:44:328 -> 2941.00
16:25:44:328 -> 2877.00
16:25:44:328 -> 2920.00
16:25:44:328 -> 2931.00
16:25:44:328 -> 2928.00
16:25:44:328 -> 2940.00
16:25:44:328 -> 2953.00
16:25:44:328 -> 2959.00
16:25:44:328 -> 2982.00
16:25:44:328 -> 2981.00
16:25:44:328 -> 2975.00
16:25:44:328 -> 2960.00
16:25:44:328 -> 2973.00
16:25:44:328 -> 2979.00
16:25:44:328 -> 2981.00
16:25:44:390 -> 2984.00
16:25:44:390 -> 2991.00
16:25:44:390 -> 2975.00
16:25:44:390 -> 2955.00
16:25:44:390 -> 2941.00
16:25:44:390 -> 2960.00
16:25:44:390 -> 2964.00
16:25:44:390 -> 2973.00
16:25:44:390 -> 2985.00
16:25:44:390 -> 2974.00
16:25:44:390 -> 2942.00
16:25:44:390 -> 2970.00
16:25:44:390 -> 2981.00
16:25:44:390 -> 2960.00
16:25:44:397 -> 3011.00
16:25:44:397 -> 3014.00
16:25:44:397 -> 2999.00
16:25:44:397 -> 2988.00
16:25:44:397 -> 2961.00
16:25:44:397 -> 2941.00
16:25:44:397 -> 2973.00
16:25:44:397 -> 2973.00
16:25:44:397 -> 2955.00
16:25:44:397 -> 2948.00
16:25:44:397 -> 2955.00
16:25:44:397 -> 2973.00
16:25:44:397 -> 2969.00
16:25:44:397 -> 2979.00
16:25:44:397 -> 3005.00
16:25:44:397 -> 3008.00
16:25:44:397 -> 2997.00
16:25:44:397 -> 2997.00
16:25:44:397 -> 2990.00
16:25:44:397 -> 2994.00
16:25:44:397 -> 2977.00
16:25:44:397 -> 2973.00
16:25:44:397 -> 2940.00
16:25:44:397 -> 2939.00
16:25:44:397 -> 2987.00
16:25:44:397 -> 2972.00
16:25:44:397 -> 2971.00
16:25:44:397 -> 2979.00
16:25:44:397 -> 2982.00
16:25:44:397 -> 2995.00
16:25:44:397 -> 2987.00
16:25:44:397 -> 2987.00
16:25:44:397 -> 3027.00
16:25:44:397 -> 2995.00
16:25:44:397 -> 2990.00
16:25:44:397 -> 2975.00
16:25:44:397 -> 2982.00
16:25:44:397 -> 2957.00
16:25:44:397 -> 2933.00
16:25:44:397 -> 2900.00
16:25:44:397 -> 2908.00
16:25:44:397 -> 2949.00
16:25:44:397 -> 2963.00
16:25:44:397 -> 2973.00
16:25:44:404 -> 2988.00
16:25:44:404 -> 2966.00
16:25:44:404 -> 2959.00
16:25:44:404 -> 2955.00
16:25:44:404 -> 2958.00
16:25:44:404 -> 3008.00
16:25:44:411 -> 2997.00
16:25:44:411 -> 2986.00
16:25:44:411 -> 2962.00
16:25:44:411 -> 2945.00
16:25:44:411 -> 2931.00
16:25:44:411 -> 2919.00
16:25:44:412 -> 2963.00
16:25:44:413 -> 2972.00
16:25:44:414 -> 2989.00
16:25:44:415 -> 2977.00
16:25:44:417 -> 2980.00
16:25:44:427 -> 2993.00
16:25:44:427 -> 2979.00
16:25:44:427 -> 2979.00
16:25:44:427 -> 3002.00
16:25:44:427 -> 2978.00
16:25:44:427 -> 3023.00
16:25:44:427 -> 3015.00
16:25:44:427 -> 3001.00
16:25:44:431 -> 3007.00
16:25:44:431 -> 3004.00
16:25:44:431 -> 2985.00
16:25:44:431 -> 2955.00
16:25:44:440 -> 2938.00
16:25:44:440 -> 2935.00
16:25:44:440 -> 2955.00
16:25:44:440 -> 2981.00
16:25:44:440 -> 2985.00
16:25:44:440 -> 2986.00
16:25:44:440 -> 2973.00
16:25:44:447 -> 2987.00
16:25:44:447 -> 3045.00
16:25:44:447 -> 3029.00
16:25:44:447 -> 3020.00
16:25:44:447 -> 2998.00
16:25:44:447 -> 2992.00
16:25:44:449 -> 2968.00
16:25:44:449 -> 2942.00
16:25:44:451 -> 2962.00
16:25:44:451 -> 2919.00
16:25:44:452 -> 2931.00
16:25:44:459 -> 2918.00
16:25:44:459 -> 2939.00
16:25:44:459 -> 2986.00
16:25:44:459 -> 2972.00
16:25:44:459 -> 2968.00
16:25:44:468 -> 2960.00
16:25:44:468 -> 2985.00
16:25:44:468 -> 3022.00
16:25:44:468 -> 3012.00
16:25:44:468 -> 3030.00
16:25:44:468 -> 3006.00
16:25:44:468 -> 2968.00
16:25:44:469 -> 2987.00
16:25:44:469 -> 2989.00
16:25:44:473 -> 2995.00
16:25:44:473 -> 2948.00
16:25:44:473 -> 2955.00
16:25:44:475 -> 2913.00
16:25:44:475 -> 2987.00
16:25:44:490 -> 3002.00
16:25:44:490 -> 2985.00
16:25:44:490 -> 2952.00
16:25:44:490 -> 2981.00
16:25:44:490 -> 2968.00
16:25:44:490 -> 2936.00
16:25:44:490 -> 2982.00
16:25:44:490 -> 3040.00
16:25:44:490 -> 3007.00
16:25:44:490 -> 2980.00
16:25:44:490 -> 2980.00
16:25:44:490 -> 2974.00
16:25:44:492 -> 2998.00
16:25:44:492 -> 3009.00
16:25:44:496 -> 3017.00
16:25:44:496 -> 2993.00
16:25:44:496 -> 2994.00
16:25:44:497 -> 3005.00
16:25:44:497 -> 3016.00
16:25:44:499 -> 3003.00
16:25:44:501 -> 3034.00
16:25:44:505 -> 3007.00
16:25:44:505 -> 3012.00
16:25:44:505 -> 2992.00
16:25:44:505 -> 2997.00
16:25:44:510 -> 2992.00
16:25:44:510 -> 2998.00
16:25:44:510 -> 2983.00
16:25:44:510 -> 2998.00
16:25:44:525 -> 2961.00
16:25:44:525 -> 2928.00
16:25:44:525 -> 2911.00
16:25:44:525 -> 2941.00
16:25:44:525 -> 2961.00
16:25:44:525 -> 2937.00
16:25:44:525 -> 2943.00
16:25:44:525 -> 2990.00
16:25:44:525 -> 3013.00
16:25:44:525 -> 3013.00
16:25:44:525 -> 3039.00
16:25:44:525 -> 2982.00
16:25:44:525 -> 2973.00
16:25:44:544 -> 3075.00
16:25:44:544 -> 3064.00
16:25:44:544 -> 3014.00
16:25:44:544 -> 3007.00
16:25:44:544 -> 2999.00
16:25:44:544 -> 3019.00
16:25:44:544 -> 2965.00
16:25:44:544 -> 2939.00
16:25:44:544 -> 2951.00
16:25:44:544 -> 2902.00
16:25:44:544 -> 2960.00
16:25:44:544 -> 3004.00
16:25:44:544 -> 3060.00
16:25:44:544 -> 3040.00
16:25:44:544 -> 2992.00
16:25:44:544 -> 3027.00
16:25:44:553 -> 3033.00
16:25:44:553 -> 3027.00
16:25:44:553 -> 2961.00
16:25:44:553 -> 2982.00
16:25:44:553 -> 2994.00
16:25:44:553 -> 2978.00
16:25:44:553 -> 3048.00
16:25:44:556 -> 3035.00
16:25:44:556 -> 3056.00
16:25:44:556 -> 3004.00
16:25:44:566 -> 3035.00
16:25:44:566 -> 3039.00
16:25:44:566 -> 3029.00
16:25:44:566 -> 3067.00
16:25:44:566 -> 3043.00
16:25:44:566 -> 3042.00
16:25:44:566 -> 3034.00
16:25:44:566 -> 3012.00
16:25:44:583 -> 3005.00
16:25:44:583 -> 3034.00
16:25:44:583 -> 3004.00
16:25:44:583 -> 2962.00
16:25:44:583 -> 2939.00
16:25:44:583 -> 3013.00
16:25:44:583 -> 2960.00
16:25:44:583 -> 2999.00
16:25:44:583 -> 2999.00
16:25:44:583 -> 3035.00
16:25:44:583 -> 3018.00
16:25:44:583 -> 2922.00
16:25:44:583 -> 3019.00
16:25:44:583 -> 2985.00
16:25:44:586 -> 2955.00
16:25:44:586 -> 3060.00
16:25:44:586 -> 3071.00
16:25:44:588 -> 3034.00
16:25:44:588 -> 2976.00
16:25:44:590 -> 2949.00
16:25:44:591 -> 2939.00
16:25:44:597 -> 2928.00
16:25:44:597 -> 2937.00
16:25:44:597 -> 2969.00
16:25:44:597 -> 3026.00
16:25:44:600 -> 3034.00
16:25:44:600 -> 3009.00
16:25:44:603 -> 3034.00
16:25:44:603 -> 3006.00
16:25:44:603 -> 3003.00
16:25:44:603 -> 2983.00
16:25:44:604 -> 3020.00
16:25:44:605 -> 3091.00
16:25:44:606 -> 3071.00
16:25:44:607 -> 2984.00
16:25:44:608 -> 2945.00
16:25:44:609 -> 3034.00
16:25:44:611 -> 2931.00
16:25:44:612 -> 3017.00
16:25:44:613 -> 3046.00
16:25:44:614 -> 3050.00
16:25:44:615 -> 2985.00
16:25:44:616 -> 2978.00
16:25:44:618 -> 3003.00
16:25:44:620 -> 2920.00
16:25:44:620 -> 2874.00
16:25:44:622 -> 3055.00
16:25:44:623 -> 3094.00
16:25:44:624 -> 3084.00
16:25:44:625 -> 3035.00
16:25:44:626 -> 2987.00
16:25:44:628 -> 2952.00
16:25:44:631 -> 2952.00
16:25:44:631 -> 2928.00
16:25:44:631 -> 2961.00
16:25:44:632 -> 2984.00
16:25:44:633 -> 3019.00
16:25:44:648 -> 2986.00
16:25:44:648 -> 3019.00
16:25:44:648 -> 2978.00
16:25:44:648 -> 3021.00
16:25:44:648 -> 3030.00
16:25:44:648 -> 3048.00
16:25:44:648 -> 3000.00
16:25:44:648 -> 3002.00
16:25:44:648 -> 3033.00
16:25:44:648 -> 2997.00
16:25:44:652 -> 2980.00
16:25:44:652 -> 2992.00
16:25:44:652 -> 3079.00
16:25:44:652 -> 3008.00
16:25:44:652 -> 2987.00
16:25:44:653 -> 2917.00
16:25:44:654 -> 2970.00
16:25:44:655 -> 3030.00
16:25:44:656 -> 3045.00
16:25:44:657 -> 3065.00
16:25:44:658 -> 3060.00
16:25:44:659 -> 2968.00
16:25:44:661 -> 3035.00
16:25:44:662 -> 2942.00
16:25:44:663 -> 2916.00
16:25:44:664 -> 2980.00
16:25:44:665 -> 3078.00
16:25:44:667 -> 3015.00
16:25:44:668 -> 2968.00
16:25:44:669 -> 2976.00
16:25:44:670 -> 2969.00
16:25:44:671 -> 2996.00
16:25:44:672 -> 2973.00
16:25:44:674 -> 3018.00
16:25:44:675 -> 2995.00
16:25:44:676 -> 2996.00
16:25:44:677 -> 3008.00
16:25:44:678 -> 3059.00
16:25:44:680 -> 2996.00
16:25:44:681 -> 3074.00
16:25:44:682 -> 3011.00
16:25:44:683 -> 2908.00
16:25:44:684 -> 2968.00
16:25:44:686 -> 3003.00
16:25:44:687 -> 2997.00
16:25:44:688 -> 3037.00
16:25:44:689 -> 3063.00
16:25:44:690 -> 3147.00
16:25:44:691 -> 3050.00
16:25:44:693 -> 3003.00
16:25:44:694 -> 2985.00
16:25:44:696 -> 2941.00
16:25:44:697 -> 2989.00
16:25:44:697 -> 3032.00
16:25:44:699 -> 2984.00
16:25:44:700 -> 3048.00
16:25:44:701 -> 3082.00
16:25:44:702 -> 3053.00
16:25:44:707 -> 2992.00
16:25:44:707 -> 3007.00
16:25:44:708 -> 3074.00
16:25:44:708 -> 3054.00
16:25:44:708 -> 3057.00
16:25:44:709 -> 3003.00
16:25:44:711 -> 2893.00
16:25:44:712 -> 2875.00
16:25:44:714 -> 2893.00
16:25:44:714 -> 3087.00
16:25:44:715 -> 3033.00
16:25:44:716 -> 2985.00
16:25:44:718 -> 2981.00
16:25:44:719 -> 3031.00
16:25:44:720 -> 3008.00
16:25:44:721 -> 3063.00
16:25:44:722 -> 3038.00
16:25:44:724 -> 3057.00
16:25:44:725 -> 3036.00
16:25:44:726 -> 3018.00
16:25:44:727 -> 3096.00
16:25:44:729 -> 3118.00
16:25:44:730 -> 2991.00
16:25:44:732 -> 2980.00
16:25:44:732 -> 2888.00
16:25:44:733 -> 2845.00
16:25:44:734 -> 2984.00
16:25:44:736 -> 2987.00
16:25:44:737 -> 2897.00
16:25:44:738 -> 2817.00
16:25:44:739 -> 2709.00
16:25:44:740 -> 2790.00
16:25:44:742 -> 2847.00
16:25:44:743 -> 2867.00
16:25:44:744 -> 2816.00
16:25:44:745 -> 2881.00
16:25:44:746 -> 3194.00
16:25:44:747 -> 3149.00
16:25:44:749 -> 3093.00
16:25:44:750 -> 3164.00
16:25:44:751 -> 3004.00
16:25:44:752 -> 2989.00
16:25:44:754 -> 2971.00
16:25:44:755 -> 2916.00
16:25:44:756 -> 2864.00
16:25:44:759 -> 2889.00
16:25:44:759 -> 2870.00
16:25:44:762 -> 2916.00
16:25:44:762 -> 2968.00
16:25:44:769 -> 2733.00
16:25:44:769 -> 2720.00
16:25:44:770 -> 2805.00
16:25:44:770 -> 2737.00
16:25:44:770 -> 2768.00
16:25:44:770 -> 2808.00
16:25:44:770 -> 3044.00
16:25:44:770 -> 3033.00
16:25:44:771 -> 3074.00
16:25:44:774 -> 3214.00
16:25:44:777 -> 3075.00
16:25:44:777 -> 2975.00
16:25:44:777 -> 2873.00
16:25:44:778 -> 3077.00
16:25:44:778 -> 3247.00
16:25:44:780 -> 3205.00
16:25:44:781 -> 3172.00
16:25:44:782 -> 3032.00
16:25:44:783 -> 3075.00
16:25:44:784 -> 2968.00
16:25:44:785 -> 3048.00
16:25:44:787 -> 2900.00
16:25:44:788 -> 2960.00
16:25:44:789 -> 2963.00
16:25:44:790 -> 3062.00
16:25:44:792 -> 3171.00
16:25:44:793 -> 3092.00
16:25:44:794 -> 3019.00
16:25:44:795 -> 2887.00
16:25:44:796 -> 2892.00
16:25:44:797 -> 2963.00
16:25:44:799 -> 3020.00
16:25:44:800 -> 3131.00
16:25:44:801 -> 3137.00
16:25:44:802 -> 3162.00
16:25:44:804 -> 3147.00
16:25:44:805 -> 2944.00
16:25:44:806 -> 3029.00
16:25:44:807 -> 3125.00
16:25:44:808 -> 3004.00
16:25:44:809 -> 2925.00
16:25:44:810 -> 2926.00
16:25:44:812 -> 2818.00
16:25:44:813 -> 2906.00
16:25:44:814 -> 3021.00
16:25:44:815 -> 2890.00
16:25:44:816 -> 2761.00
16:25:44:818 -> 2919.00
16:25:44:820 -> 3043.00
16:25:44:822 -> 2961.00
16:25:44:822 -> 2958.00
16:25:44:824 -> 2985.00
16:25:44:835 -> 2989.00
16:25:44:835 -> 2998.00
16:25:44:835 -> 2991.00
16:25:44:835 -> 3071.00
16:25:44:835 -> 2992.00
16:25:44:869 -> 3044.00
16:25:44:869 -> 3107.00
16:25:44:869 -> 3087.00
16:25:44:869 -> 3150.00
16:25:44:869 -> 3178.00
16:25:44:869 -> 2935.00
16:25:44:869 -> 2940.00
16:25:44:869 -> 2892.00
16:25:44:869 -> 2930.00
16:25:44:869 -> 3085.00
16:25:44:869 -> 3125.00
16:25:44:869 -> 3133.00
16:25:44:869 -> 3081.00
16:25:44:869 -> 2953.00
16:25:44:869 -> 2976.00
16:25:44:876 -> 2920.00
16:25:44:876 -> 3046.00
16:25:44:876 -> 3021.00
16:25:44:876 -> 3001.00
16:25:44:876 -> 2941.00
16:25:44:876 -> 2970.00
16:25:44:876 -> 2994.00
16:25:44:876 -> 2987.00
16:25:44:876 -> 2997.00
16:25:44:876 -> 2817.00
16:25:44:876 -> 2983.00
16:25:44:876 -> 3119.00
16:25:44:876 -> 3047.00
16:25:44:876 -> 3061.00
16:25:44:876 -> 2845.00
16:25:44:876 -> 2997.00
16:25:44:876 -> 3061.00
16:25:44:876 -> 3084.00
16:25:44:876 -> 3156.00
16:25:44:876 -> 3025.00
16:25:44:876 -> 3023.00
16:25:44:876 -> 3042.00
16:25:44:876 -> 3106.00
16:25:44:876 -> 3034.00
16:25:44:882 -> 3109.00
16:25:44:882 -> 3029.00
16:25:44:882 -> 3014.00
16:25:44:882 -> 3019.00
16:25:44:882 -> 2880.00
16:25:44:919 -> 2917.00
16:25:44:919 -> 2931.00
16:25:44:919 -> 3099.00
16:25:44:919 -> 3178.00
16:25:44:919 -> 3061.00
16:25:44:919 -> 3033.00
16:25:44:919 -> 3004.00
16:25:44:924 -> 3000.00
16:25:44:924 -> 2964.00
16:25:44:924 -> 2945.00
16:25:44:924 -> 2926.00
16:25:44:924 -> 2891.00
16:25:44:924 -> 2869.00
16:25:44:924 -> 2950.00
16:25:44:924 -> 2991.00
16:25:44:924 -> 3082.00
16:25:44:924 -> 3011.00
16:25:44:924 -> 3132.00
16:25:44:924 -> 3140.00
16:25:44:924 -> 2961.00
16:25:44:924 -> 2964.00
16:25:44:924 -> 2846.00
16:25:44:924 -> 2819.00
16:25:44:924 -> 2875.00
16:25:44:924 -> 3036.00
16:25:44:924 -> 3002.00
16:25:44:924 -> 2864.00
16:25:44:924 -> 2950.00
16:25:44:924 -> 2935.00
16:25:44:924 -> 3238.00
16:25:44:924 -> 3060.00
16:25:44:924 -> 3017.00
16:25:44:924 -> 3186.00
16:25:44:924 -> 3021.00
16:25:44:924 -> 3075.00
16:25:44:924 -> 3177.00
16:25:44:925 -> 3159.00
16:25:44:934 -> 3069.00
16:25:44:934 -> 2988.00
16:25:44:934 -> 2939.00
16:25:44:934 -> 2926.00
16:25:44:934 -> 2946.00
16:25:44:934 -> 2678.00
16:25:44:934 -> 2693.00
16:25:44:934 -> 3143.00
16:25:44:937 -> 2858.00
16:25:44:937 -> 2931.00
16:25:44:947 -> 2867.00
16:25:44:947 -> 2965.00
16:25:44:947 -> 3127.00
16:25:44:947 -> 3167.00
16:25:44:947 -> 3199.00
16:25:44:947 -> 3066.00
16:25:44:947 -> 2962.00
16:25:44:947 -> 2803.00
16:25:44:961 -> 3079.00
16:25:44:961 -> 3182.00
16:25:44:976 -> 3187.00
16:25:44:976 -> 3027.00
16:25:44:976 -> 2912.00
16:25:44:976 -> 2845.00
16:25:44:976 -> 3123.00
16:25:44:976 -> 2952.00
16:25:44:976 -> 3009.00
16:25:44:976 -> 3110.00
16:25:44:976 -> 3193.00
16:25:44:976 -> 2947.00
16:25:44:976 -> 2707.00
16:25:44:976 -> 2824.00
16:25:44:976 -> 3140.00
16:25:44:976 -> 3116.00
16:25:44:976 -> 2866.00
16:25:44:976 -> 2956.00
16:25:44:976 -> 3121.00
16:25:44:976 -> 2972.00
16:25:44:976 -> 2995.00
16:25:44:976 -> 2958.00
16:25:44:976 -> 2768.00
16:25:44:976 -> 3142.00
16:25:44:976 -> 3318.00
16:25:44:983 -> 3050.00
16:25:44:983 -> 2733.00
16:25:44:983 -> 2949.00
16:25:44:983 -> 2960.00
16:25:44:985 -> 3046.00
16:25:44:985 -> 3009.00
16:25:44:985 -> 3104.00
16:25:44:989 -> 2696.00
16:25:44:989 -> 3002.00
16:25:44:989 -> 3305.00
16:25:44:991 -> 3132.00
16:25:44:991 -> 3159.00
16:25:44:994 -> 2843.00
16:25:44:994 -> 2743.00
16:25:44:994 -> 2845.00
16:25:44:995 -> 2959.00
16:25:44:996 -> 2969.00
16:25:44:997 -> 2962.00
16:25:44:999 -> 3106.00
16:25:45:000 -> 2988.00
16:25:45:001 -> 2912.00
16:25:45:002 -> 3031.00
16:25:45:003 -> 2986.00
16:25:45:005 -> 2991.00
16:25:45:006 -> 3070.00
16:25:45:007 -> 2883.00
16:25:45:008 -> 2955.00
16:25:45:009 -> 3006.00
16:25:45:010 -> 2999.00
16:25:45:012 -> 3061.00
16:25:45:013 -> 3069.00
16:25:45:014 -> 3030.00
16:25:45:015 -> 3042.00
16:25:45:016 -> 2951.00
16:25:45:018 -> 3018.00
16:25:45:019 -> 2913.00
16:25:45:020 -> 3056.00
16:25:45:021 -> 2992.00
16:25:45:022 -> 2939.00
16:25:45:024 -> 2876.00
16:25:45:025 -> 2908.00
16:25:45:026 -> 2911.00
16:25:45:027 -> 2922.00
16:25:45:028 -> 2897.00
16:25:45:030 -> 3106.00
16:25:45:031 -> 3201.00
16:25:45:036 -> 3130.00
16:25:45:036 -> 2715.00
16:25:45:036 -> 2813.00
16:25:45:036 -> 3061.00
16:25:45:037 -> 3027.00
16:25:45:038 -> 3062.00
16:25:45:039 -> 2997.00
16:25:45:040 -> 2967.00
16:25:45:041 -> 3099.00
16:25:45:043 -> 3131.00
16:25:45:044 -> 2973.00
16:25:45:045 -> 2851.00
16:25:45:047 -> 3093.00
16:25:45:048 -> 3427.00
16:25:45:051 -> 3217.00
16:25:45:051 -> 2864.00
16:25:45:051 -> 3084.00
16:25:45:085 -> 2945.00
16:25:45:085 -> 2862.00
16:25:45:085 -> 2874.00
16:25:45:085 -> 3236.00
16:25:45:085 -> 3067.00
16:25:45:085 -> 2893.00
16:25:45:085 -> 2889.00
16:25:45:085 -> 3002.00
16:25:45:085 -> 3094.00
16:25:45:085 -> 3052.00
16:25:45:085 -> 2924.00
16:25:45:085 -> 2999.00
16:25:45:085 -> 3069.00
16:25:45:085 -> 3162.00
16:25:45:085 -> 2948.00
16:25:45:085 -> 2810.00
16:25:45:085 -> 2664.00
16:25:45:085 -> 2703.00
16:25:45:085 -> 2914.00
16:25:45:085 -> 3071.00
16:25:45:085 -> 2989.00
16:25:45:085 -> 2974.00
16:25:45:085 -> 2874.00
16:25:45:085 -> 2656.00
16:25:45:085 -> 2764.00
16:25:45:085 -> 3362.00
16:25:45:085 -> 3361.00
16:25:45:085 -> 2939.00
16:25:45:086 -> 2822.00
16:25:45:087 -> 2962.00
16:25:45:097 -> 3000.00
16:25:45:097 -> 3175.00
16:25:45:097 -> 2922.00
16:25:45:097 -> 3155.00
16:25:45:097 -> 3033.00
16:25:45:097 -> 3141.00
16:25:45:098 -> 3030.00
16:25:45:098 -> 3032.00
16:25:45:098 -> 3008.00
16:25:45:099 -> 3192.00
16:25:45:100 -> 3100.00
16:25:45:101 -> 3241.00
16:25:45:102 -> 3290.00
16:25:45:103 -> 3132.00
16:25:45:105 -> 2819.00
16:25:45:106 -> 3054.00
16:25:45:107 -> 3188.00
16:25:45:108 -> 2916.00
16:25:45:109 -> 2858.00
16:25:45:111 -> 2974.00
16:25:45:112 -> 3080.00
16:25:45:113 -> 2929.00
16:25:45:114 -> 3084.00
16:25:45:115 -> 2946.00
16:25:45:116 -> 3017.00
16:25:45:118 -> 2967.00
16:25:45:119 -> 2867.00
16:25:45:120 -> 3051.00
16:25:45:121 -> 3306.00
16:25:45:122 -> 3092.00
16:25:45:124 -> 2973.00
16:25:45:126 -> 2972.00
16:25:45:128 -> 3028.00
16:25:45:128 -> 2955.00
16:25:45:129 -> 2933.00
16:25:45:129 -> 3046.00
16:25:45:131 -> 2889.00
16:25:45:132 -> 2832.00
16:25:45:133 -> 3229.00
16:25:45:134 -> 3457.00
16:25:45:136 -> 2819.00
16:25:45:137 -> 2858.00
16:25:45:138 -> 3099.00
16:25:45:139 -> 3033.00
16:25:45:140 -> 3006.00
16:25:45:141 -> 2905.00
16:25:45:143 -> 2891.00
16:25:45:144 -> 3028.00
16:25:45:145 -> 2965.00
16:25:45:146 -> 3012.00
16:25:45:147 -> 2875.00
16:25:45:149 -> 2838.00
16:25:45:150 -> 3011.00
16:25:45:151 -> 3113.00
16:25:45:152 -> 2889.00
16:25:45:153 -> 3042.00
16:25:45:155 -> 2763.00
16:25:45:156 -> 2747.00
16:25:45:157 -> 2848.00
16:25:45:158 -> 3049.00
16:25:45:159 -> 3085.00
16:25:45:160 -> 3278.00
16:25:45:164 -> 3261.00
16:25:45:164 -> 3176.00
16:25:45:164 -> 3131.00
16:25:45:165 -> 2967.00
16:25:45:166 -> 2720.00
16:25:45:168 -> 3065.00
16:25:45:169 -> 3099.00
16:25:45:170 -> 2975.00
16:25:45:171 -> 3174.00
16:25:45:172 -> 3406.00
16:25:45:176 -> 3086.00
16:25:45:176 -> 3013.00
16:25:45:176 -> 3174.00
16:25:45:208 -> 3131.00
16:25:45:208 -> 3054.00
16:25:45:208 -> 2990.00
16:25:45:208 -> 3009.00
16:25:45:208 -> 2966.00
16:25:45:208 -> 3192.00
16:25:45:208 -> 3013.00
16:25:45:208 -> 2979.00
16:25:45:208 -> 3011.00
16:25:45:208 -> 3030.00
16:25:45:208 -> 2893.00
16:25:45:208 -> 2952.00
16:25:45:208 -> 2943.00
16:25:45:208 -> 3104.00
16:25:45:216 -> 3023.00
16:25:45:216 -> 3000.00
16:25:45:216 -> 3151.00
16:25:45:216 -> 3078.00
16:25:45:216 -> 2999.00
16:25:45:216 -> 2929.00
16:25:45:216 -> 2974.00
16:25:45:216 -> 3031.00
16:25:45:216 -> 3123.00
16:25:45:216 -> 3067.00
16:25:45:216 -> 3066.00
16:25:45:216 -> 3027.00
16:25:45:216 -> 3219.00
16:25:45:216 -> 3189.00
16:25:45:216 -> 2951.00
16:25:45:216 -> 3005.00
16:25:45:216 -> 3114.00
16:25:45:221 -> 2884.00
16:25:45:221 -> 2910.00
16:25:45:221 -> 2840.00
16:25:45:221 -> 2755.00
16:25:45:221 -> 2847.00
16:25:45:221 -> 2911.00
16:25:45:221 -> 3025.00
16:25:45:222 -> 3026.00
16:25:45:224 -> 2975.00
16:25:45:225 -> 2935.00
16:25:45:226 -> 3273.00
16:25:45:227 -> 3096.00
16:25:45:228 -> 3090.00
16:25:45:230 -> 3107.00
16:25:45:231 -> 3130.00
16:25:45:232 -> 3215.00
16:25:45:233 -> 3046.00
16:25:45:234 -> 3083.00
16:25:45:235 -> 2859.00
16:25:45:237 -> 3015.00
16:25:45:238 -> 3148.00
16:25:45:239 -> 3083.00
16:25:45:240 -> 2919.00
16:25:45:241 -> 3099.00
16:25:45:243 -> 3093.00
16:25:45:244 -> 3074.00
16:25:45:245 -> 3126.00
16:25:45:246 -> 3144.00
16:25:45:247 -> 3145.00
16:25:45:249 -> 3313.00
16:25:45:250 -> 3026.00
16:25:45:251 -> 2976.00
16:25:45:252 -> 2899.00
16:25:45:253 -> 2938.00
16:25:45:255 -> 3019.00
16:25:45:256 -> 3131.00
16:25:45:269 -> 3030.00
16:25:45:269 -> 2994.00
16:25:45:269 -> 2943.00
16:25:45:269 -> 3038.00
16:25:45:272 -> 3223.00
16:25:45:272 -> 3136.00
16:25:45:272 -> 3116.00
16:25:45:272 -> 2979.00
16:25:45:272 -> 3049.00
16:25:45:272 -> 3209.00
16:25:45:272 -> 3167.00
16:25:45:272 -> 2866.00
16:25:45:272 -> 2841.00
16:25:45:273 -> 2948.00
16:25:45:273 -> 2910.00
16:25:45:275 -> 3010.00
16:25:45:276 -> 3042.00
16:25:45:277 -> 3089.00
16:25:45:280 -> 2989.00
16:25:45:281 -> 2866.00
16:25:45:281 -> 2954.00
16:25:45:282 -> 3380.00
16:25:45:285 -> 3133.00
16:25:45:285 -> 3071.00
16:25:45:286 -> 3094.00
16:25:45:288 -> 3036.00
16:25:45:288 -> 2991.00
16:25:45:290 -> 3088.00
16:25:45:290 -> 2944.00
16:25:45:291 -> 3087.00
16:25:45:293 -> 3105.00
16:25:45:294 -> 2900.00
16:25:45:296 -> 2952.00
16:25:45:296 -> 3071.00
16:25:45:297 -> 3041.00
16:25:45:299 -> 3066.00
16:25:45:300 -> 2943.00
16:25:45:301 -> 3055.00
16:25:45:302 -> 3147.00
16:25:45:303 -> 3209.00
16:25:45:304 -> 3182.00
16:25:45:306 -> 3042.00
16:25:45:307 -> 2940.00
16:25:45:308 -> 3033.00
16:25:45:309 -> 3173.00
16:25:45:310 -> 2991.00
16:25:45:312 -> 3068.00
16:25:45:313 -> 3097.00
16:25:45:314 -> 2965.00
16:25:45:315 -> 2903.00
16:25:45:316 -> 2984.00
16:25:45:318 -> 3098.00
16:25:45:319 -> 2959.00
16:25:45:320 -> 3128.00
16:25:45:321 -> 3303.00
16:25:45:322 -> 3273.00
16:25:45:324 -> 3113.00
16:25:45:325 -> 3091.00
16:25:45:326 -> 3096.00
16:25:45:327 -> 2910.00
16:25:45:328 -> 2867.00
16:25:45:330 -> 3091.00
16:25:45:331 -> 2936.00
16:25:45:332 -> 3048.00
16:25:45:333 -> 3187.00
16:25:45:336 -> 3030.00
16:25:45:379 -> 2989.00
16:25:45:379 -> 3084.00
16:25:45:466 -> 3233.00
16:25:45:466 -> 3061.00
16:25:45:466 -> 3071.00
16:25:45:466 -> 3201.00
16:25:45:466 -> 3092.00
16:25:45:466 -> 3128.00
16:25:45:466 -> 3151.00
16:25:45:466 -> 3033.00
16:25:45:466 -> 3120.00
16:25:45:466 -> 3075.00
16:25:45:466 -> 2963.00
16:25:45:466 -> 3092.00
16:25:45:466 -> 3058.00
16:25:45:466 -> 2927.00
16:25:45:466 -> 2969.00
16:25:45:466 -> 3056.00
16:25:45:466 -> 3065.00
16:25:45:466 -> 2884.00
16:25:45:466 -> 2863.00
16:25:45:466 -> 3073.00
16:25:45:466 -> 3064.00
16:25:45:466 -> 3083.00
16:25:45:466 -> 3218.00
16:25:45:466 -> 2977.00
16:25:45:466 -> 2841.00
16:25:45:466 -> 3214.00
16:25:45:466 -> 3323.00
16:25:45:466 -> 3283.00
16:25:45:466 -> 2956.00
16:25:45:466 -> 3081.00
16:25:45:466 -> 3073.00
16:25:45:466 -> 3086.00
16:25:45:466 -> 3046.00
16:25:45:466 -> 3030.00
16:25:45:466 -> 3145.00
16:25:45:466 -> 3088.00
16:25:45:466 -> 3084.00
16:25:45:466 -> 3121.00
16:25:45:466 -> 3132.00
16:25:45:466 -> 2944.00
16:25:45:466 -> 2987.00
16:25:45:466 -> 2949.00
16:25:45:466 -> 2981.00
16:25:45:466 -> 3118.00
16:25:45:466 -> 3045.00
16:25:45:466 -> 3068.00
16:25:45:466 -> 3103.00
16:25:45:466 -> 3120.00
16:25:45:466 -> 3130.00
16:25:45:466 -> 3010.00
16:25:45:466 -> 3055.00
16:25:45:466 -> 3119.00
16:25:45:466 -> 3111.00
16:25:45:466 -> 3031.00
16:25:45:466 -> 3142.00
16:25:45:466 -> 3144.00
16:25:45:466 -> 3117.00
16:25:45:466 -> 3088.00
16:25:45:466 -> 3051.00
16:25:45:466 -> 3068.00
16:25:45:466 -> 3286.00
16:25:45:466 -> 2924.00
16:25:45:466 -> 2920.00
16:25:45:466 -> 3025.00
16:25:45:466 -> 3122.00
16:25:45:466 -> 3069.00
16:25:45:466 -> 2975.00
16:25:45:466 -> 3185.00
16:25:45:466 -> 3249.00
16:25:45:466 -> 3314.00
16:25:45:476 -> 3079.00
16:25:45:476 -> 2967.00
16:25:45:476 -> 3095.00
16:25:45:476 -> 3099.00
16:25:45:476 -> 3090.00
16:25:45:476 -> 3065.00
16:25:45:476 -> 3130.00
16:25:45:476 -> 3097.00
16:25:45:476 -> 3041.00
16:25:45:476 -> 2988.00
16:25:45:476 -> 2996.00
16:25:45:476 -> 3031.00
16:25:45:476 -> 3067.00
16:25:45:476 -> 3218.00
16:25:45:476 -> 3089.00
16:25:45:476 -> 3049.00
16:25:45:476 -> 3108.00
16:25:45:476 -> 3007.00
16:25:45:476 -> 3055.00
16:25:45:476 -> 3353.00
16:25:45:476 -> 3026.00
16:25:45:476 -> 3087.00
16:25:45:476 -> 3186.00
16:25:45:476 -> 3183.00
16:25:45:476 -> 3012.00
16:25:45:476 -> 3042.00
16:25:45:476 -> 3091.00
16:25:45:476 -> 3114.00
16:25:45:476 -> 3110.00
16:25:45:476 -> 3094.00
16:25:45:476 -> 2977.00
16:25:45:476 -> 2921.00
16:25:45:476 -> 3039.00
16:25:45:476 -> 3099.00
16:25:45:476 -> 3128.00
16:25:45:476 -> 2976.00
16:25:45:476 -> 2947.00
16:25:45:476 -> 3120.00
16:25:45:476 -> 3133.00
16:25:45:476 -> 3009.00
16:25:45:476 -> 3092.00
16:25:45:476 -> 2862.00
16:25:45:476 -> 2903.00
16:25:45:476 -> 3328.00
16:25:45:476 -> 3399.00
16:25:45:476 -> 3250.00
16:25:45:476 -> 3125.00
16:25:45:477 -> 3121.00
16:25:45:478 -> 3110.00
16:25:45:479 -> 3086.00
16:25:45:481 -> 2985.00
16:25:45:482 -> 3035.00
16:25:45:483 -> 3041.00
16:25:45:484 -> 3250.00
16:25:45:485 -> 3152.00
16:25:45:487 -> 2923.00
16:25:45:488 -> 2955.00
16:25:45:489 -> 3355.00
16:25:45:490 -> 3147.00
16:25:45:491 -> 3004.00
16:25:45:492 -> 3177.00
16:25:45:494 -> 3089.00
16:25:45:495 -> 3220.00
16:25:45:496 -> 3148.00
16:25:45:497 -> 2981.00
16:25:45:498 -> 3155.00
16:25:45:500 -> 3139.00
16:25:45:501 -> 2983.00
16:25:45:503 -> 2970.00
16:25:45:507 -> 3014.00
16:25:45:507 -> 3168.00
16:25:45:507 -> 3108.00
16:25:45:508 -> 3101.00
16:25:45:508 -> 3088.00
16:25:45:514 -> 2858.00
16:25:45:528 -> 2962.00
16:25:45:528 -> 3131.00
16:25:45:528 -> 3180.00
16:25:45:528 -> 3021.00
16:25:45:528 -> 2976.00
16:25:45:528 -> 3053.00
16:25:45:532 -> 3154.00
16:25:45:532 -> 3096.00
16:25:45:532 -> 3071.00
16:25:45:532 -> 3111.00
16:25:45:532 -> 3104.00
16:25:45:532 -> 3096.00
16:25:45:532 -> 3178.00
16:25:45:532 -> 3240.00
16:25:45:532 -> 3048.00
16:25:45:532 -> 3269.00
16:25:45:532 -> 3377.00
16:25:45:532 -> 3227.00
16:25:45:533 -> 2913.00
16:25:45:533 -> 2843.00
16:25:45:534 -> 3027.00
16:25:45:535 -> 3094.00
16:25:45:537 -> 3214.00
16:25:45:538 -> 3241.00
16:25:45:539 -> 3293.00
16:25:45:540 -> 3044.00
16:25:45:541 -> 3051.00
16:25:45:543 -> 3032.00
16:25:45:544 -> 3136.00
16:25:45:545 -> 3087.00
16:25:45:546 -> 3081.00
16:25:45:547 -> 3131.00
16:25:45:548 -> 3069.00
16:25:45:550 -> 3104.00
16:25:45:551 -> 2961.00
16:25:45:552 -> 2867.00
16:25:45:553 -> 3049.00
16:25:45:554 -> 3172.00
16:25:45:556 -> 3221.00
16:25:45:557 -> 3185.00
16:25:45:558 -> 3149.00
16:25:45:559 -> 3028.00
16:25:45:560 -> 3166.00
16:25:45:562 -> 3236.00
16:25:45:563 -> 3107.00
16:25:45:564 -> 3100.00
16:25:45:565 -> 3070.00
16:25:45:566 -> 3019.00
16:25:45:568 -> 3154.00
16:25:45:569 -> 3199.00
16:25:45:570 -> 3099.00
16:25:45:571 -> 3031.00
16:25:45:572 -> 3023.00
16:25:45:573 -> 3008.00
16:25:45:575 -> 3147.00
16:25:45:576 -> 3202.00
16:25:45:577 -> 3329.00
16:25:45:578 -> 3123.00
16:25:45:579 -> 3143.00
16:25:45:581 -> 3102.00
16:25:45:582 -> 2942.00
16:25:45:584 -> 2969.00
16:25:45:585 -> 2966.00
16:25:45:585 -> 2975.00
16:25:45:587 -> 3225.00
16:25:45:590 -> 3443.00
16:25:45:593 -> 2968.00
16:25:45:593 -> 3077.00
16:25:45:593 -> 3477.00
16:25:45:593 -> 3070.00
16:25:45:596 -> 2896.00
16:25:45:598 -> 3046.00
16:25:45:598 -> 3142.00
16:25:45:598 -> 3062.00
16:25:45:605 -> 3026.00
16:25:45:605 -> 3070.00
16:25:45:605 -> 3175.00
16:25:45:605 -> 3228.00
16:25:45:605 -> 3120.00
16:25:45:605 -> 3196.00
16:25:45:608 -> 3216.00
16:25:45:608 -> 3109.00
16:25:45:608 -> 3205.00
16:25:45:611 -> 3166.00
16:25:45:612 -> 3147.00
16:25:45:613 -> 3104.00
16:25:45:613 -> 2999.00
16:25:45:616 -> 3020.00
16:25:45:616 -> 3105.00
16:25:45:618 -> 3126.00
16:25:45:620 -> 3059.00
16:25:45:620 -> 3109.00
16:25:45:622 -> 3249.00
16:25:45:622 -> 3221.00
16:25:45:623 -> 3226.00
16:25:45:624 -> 3162.00
16:25:45:625 -> 3144.00
16:25:45:626 -> 3132.00
16:25:45:627 -> 3040.00
16:25:45:628 -> 3096.00
16:25:45:629 -> 3047.00
16:25:45:631 -> 3066.00
16:25:45:632 -> 3120.00
16:25:45:633 -> 3151.00
16:25:45:636 -> 3162.00
16:25:45:636 -> 3130.00
16:25:45:643 -> 3063.00
16:25:45:643 -> 3145.00
16:25:45:643 -> 3131.00
16:25:45:643 -> 2990.00
16:25:45:643 -> 3182.00
16:25:45:643 -> 3203.00
16:25:45:680 -> 3117.00
16:25:45:680 -> 3137.00
16:25:45:680 -> 3063.00
16:25:45:680 -> 2958.00
16:25:45:680 -> 3334.00
16:25:45:680 -> 3048.00
16:25:45:680 -> 3078.00
16:25:45:680 -> 3208.00
16:25:45:680 -> 3194.00
16:25:45:680 -> 3097.00
16:25:45:691 -> 3211.00
16:25:45:691 -> 3286.00
16:25:45:691 -> 3088.00
16:25:45:691 -> 3110.00
16:25:45:691 -> 3119.00
16:25:45:691 -> 3317.00
16:25:45:691 -> 3019.00
16:25:45:691 -> 2932.00
16:25:45:691 -> 3164.00
16:25:45:691 -> 3387.00
16:25:45:691 -> 2953.00
16:25:45:691 -> 3100.00
16:25:45:691 -> 3184.00
16:25:45:691 -> 3084.00
16:25:45:691 -> 3068.00
16:25:45:691 -> 3082.00
16:25:45:691 -> 2998.00
16:25:45:691 -> 3119.00
16:25:45:691 -> 3231.00
16:25:45:691 -> 3111.00
16:25:45:691 -> 3126.00
16:25:45:691 -> 3375.00
16:25:45:691 -> 3083.00
16:25:45:691 -> 2900.00
16:25:45:691 -> 3136.00
16:25:45:691 -> 3223.00
16:25:45:691 -> 3124.00
16:25:45:691 -> 3154.00
16:25:45:691 -> 3152.00
16:25:45:700 -> 3277.00
16:25:45:700 -> 3097.00
16:25:45:700 -> 3160.00
16:25:45:700 -> 3240.00
16:25:45:700 -> 3228.00
16:25:45:700 -> 3082.00
16:25:45:700 -> 3067.00
16:25:45:700 -> 3215.00
16:25:45:700 -> 3161.00
16:25:45:714 -> 3117.00
16:25:45:714 -> 3193.00
16:25:45:714 -> 3178.00
16:25:45:714 -> 3188.00
16:25:45:714 -> 3208.00
16:25:45:714 -> 3263.00
16:25:45:714 -> 3091.00
16:25:45:714 -> 3048.00
16:25:45:714 -> 3033.00
16:25:45:714 -> 3019.00
16:25:45:714 -> 3306.00
16:25:45:714 -> 3223.00
16:25:45:717 -> 3170.00
16:25:45:717 -> 3231.00
16:25:45:719 -> 3059.00
16:25:45:719 -> 3116.00
16:25:45:720 -> 3085.00
16:25:45:742 -> 3033.00
16:25:45:742 -> 3143.00
16:25:45:742 -> 3320.00
16:25:45:742 -> 3046.00
16:25:45:742 -> 3085.00
16:25:45:764 -> 3116.00
16:25:45:764 -> 3027.00
16:25:45:764 -> 3105.00
16:25:45:764 -> 3116.00
16:25:45:764 -> 3185.00
16:25:45:764 -> 3011.00
16:25:45:764 -> 3025.00
16:25:45:764 -> 3119.00
16:25:45:764 -> 2988.00
16:25:45:764 -> 3102.00
16:25:45:764 -> 3209.00
16:25:45:764 -> 3066.00
16:25:45:764 -> 2854.00
16:25:45:764 -> 3056.00
16:25:45:764 -> 3261.00
16:25:45:764 -> 3279.00
16:25:45:764 -> 3124.00
16:25:45:764 -> 3186.00
16:25:45:764 -> 3311.00
16:25:45:777 -> 3121.00
16:25:45:777 -> 3086.00
16:25:45:777 -> 3238.00
16:25:45:777 -> 3170.00
16:25:45:777 -> 3046.00
16:25:45:777 -> 2984.00
16:25:45:777 -> 3122.00
16:25:45:777 -> 3338.00
16:25:45:777 -> 3116.00
16:25:45:777 -> 3094.00
16:25:45:777 -> 3268.00
16:25:45:777 -> 3284.00
16:25:45:777 -> 3149.00
16:25:45:777 -> 3261.00
16:25:45:777 -> 3142.00
16:25:45:777 -> 3115.00
16:25:45:777 -> 3395.00
16:25:45:777 -> 3345.00
16:25:45:777 -> 3175.00
16:25:45:777 -> 3120.00
16:25:45:777 -> 3086.00
16:25:45:777 -> 3282.00
16:25:45:777 -> 3166.00
16:25:45:777 -> 3036.00
16:25:45:788 -> 2923.00
16:25:45:788 -> 3131.00
16:25:45:788 -> 3152.00
16:25:45:788 -> 3145.00
16:25:45:788 -> 3089.00
16:25:45:788 -> 3016.00
16:25:45:788 -> 3039.00
16:25:45:788 -> 3294.00
16:25:45:788 -> 3324.00
16:25:45:793 -> 3254.00
16:25:45:793 -> 3122.00
16:25:45:793 -> 2985.00
16:25:45:793 -> 3031.00
16:25:45:794 -> 3134.00
16:25:45:795 -> 3268.00
16:25:45:796 -> 3214.00
16:25:45:797 -> 3119.00
16:25:45:798 -> 3153.00
16:25:45:800 -> 3130.00
16:25:45:801 -> 3166.00
16:25:45:802 -> 3107.00
16:25:45:803 -> 3092.00
16:25:45:804 -> 3144.00
16:25:45:806 -> 3152.00
16:25:45:807 -> 3055.00
16:25:45:808 -> 2834.00
16:25:45:809 -> 2925.00
16:25:45:810 -> 3127.00
16:25:45:812 -> 3221.00
16:25:45:813 -> 3391.00
16:25:45:814 -> 3174.00
16:25:45:815 -> 3139.00
16:25:45:816 -> 3146.00
16:25:45:817 -> 3120.00
16:25:45:819 -> 3107.00
16:25:45:820 -> 2967.00
16:25:45:826 -> 3089.00
16:25:45:826 -> 3006.00
16:25:45:826 -> 2972.00
16:25:45:826 -> 3156.00
16:25:45:831 -> 3110.00
16:25:45:831 -> 2986.00
16:25:45:831 -> 2928.00
16:25:45:831 -> 3174.00
16:25:45:831 -> 2864.00
16:25:45:832 -> 2807.00
16:25:45:833 -> 3091.00
16:25:45:834 -> 3154.00
16:25:45:835 -> 3305.00
16:25:45:836 -> 3409.00
16:25:45:851 -> 3426.00
16:25:45:851 -> 3242.00
16:25:45:851 -> 3161.00
16:25:45:851 -> 3162.00
16:25:45:851 -> 3419.00
16:25:45:851 -> 3505.00
16:25:45:851 -> 3247.00
16:25:45:851 -> 3098.00
16:25:45:851 -> 3254.00
16:25:45:851 -> 3310.00
16:25:45:851 -> 3280.00
16:25:45:852 -> 3112.00
16:25:45:853 -> 3168.00
16:25:45:853 -> 2986.00
16:25:45:854 -> 3061.00
16:25:45:857 -> 3242.00
16:25:45:857 -> 3232.00
16:25:45:858 -> 3126.00
16:25:45:859 -> 3260.00
16:25:45:860 -> 2989.00
16:25:45:861 -> 2833.00
16:25:45:863 -> 3153.00
16:25:45:864 -> 3575.00
16:25:45:865 -> 3287.00
16:25:45:866 -> 3202.00
16:25:45:867 -> 3181.00
16:25:45:869 -> 3218.00
16:25:45:872 -> 3243.00
16:25:45:872 -> 3133.00
16:25:45:877 -> 3105.00
16:25:45:877 -> 3079.00
16:25:45:877 -> 3095.00
16:25:45:877 -> 3067.00
16:25:45:877 -> 2901.00
16:25:45:880 -> 3163.00
16:25:45:883 -> 3565.00
16:25:45:883 -> 3030.00
16:25:45:883 -> 3084.00
16:25:45:889 -> 3196.00
16:25:45:889 -> 3189.00
16:25:45:889 -> 3080.00
16:25:45:889 -> 3063.00
16:25:45:889 -> 3098.00
16:25:45:889 -> 3017.00
16:25:45:898 -> 3107.00
16:25:45:898 -> 3255.00
16:25:45:898 -> 3163.00
16:25:45:898 -> 3038.00
16:25:45:898 -> 3135.00
16:25:45:898 -> 3072.00
16:25:45:898 -> 3023.00
16:25:45:899 -> 3109.00
16:25:45:905 -> 2987.00
16:25:45:905 -> 3058.00
16:25:45:905 -> 3218.00
16:25:45:905 -> 3466.00
16:25:45:905 -> 3258.00
16:25:45:906 -> 3266.00
16:25:45:907 -> 3220.00
16:25:45:908 -> 3127.00
16:25:45:909 -> 3180.00
16:25:45:910 -> 3039.00
16:25:45:911 -> 3012.00
16:25:45:913 -> 3101.00
16:25:45:914 -> 3196.00
16:25:45:918 -> 3125.00
16:25:45:921 -> 3065.00
16:25:45:921 -> 3035.00
16:25:45:921 -> 3063.00
16:25:45:921 -> 3313.00
16:25:45:923 -> 3154.00
16:25:45:923 -> 3053.00
16:25:45:925 -> 3122.00
16:25:45:926 -> 3109.00
16:25:45:926 -> 3350.00
16:25:45:927 -> 3359.00
16:25:45:928 -> 3198.00
16:25:45:929 -> 3257.00
16:25:45:931 -> 3284.00
16:25:45:932 -> 3274.00
16:25:45:933 -> 2949.00
16:25:45:934 -> 3065.00
16:25:45:935 -> 3183.00
16:25:45:936 -> 3086.00
16:25:45:938 -> 3241.00
16:25:45:939 -> 3375.00
16:25:45:941 -> 3247.00
16:25:45:945 -> 3069.00
16:25:45:945 -> 3029.00
16:25:45:945 -> 3154.00
16:25:45:945 -> 3029.00
16:25:46:004 -> 3112.00
16:25:46:004 -> 3148.00
16:25:46:004 -> 3092.00
16:25:46:004 -> 2929.00
16:25:46:004 -> 3099.00
16:25:46:004 -> 3271.00
16:25:46:004 -> 3114.00
16:25:46:004 -> 3146.00
16:25:46:004 -> 3285.00
16:25:46:004 -> 3252.00
16:25:46:004 -> 3184.00
16:25:46:004 -> 3191.00
16:25:46:004 -> 3292.00
16:25:46:004 -> 2950.00
16:25:46:004 -> 2971.00
16:25:46:004 -> 3499.00
16:25:46:004 -> 3167.00
16:25:46:004 -> 3152.00
16:25:46:004 -> 3117.00
16:25:46:004 -> 3265.00
16:25:46:004 -> 3240.00
16:25:46:004 -> 3187.00
16:25:46:004 -> 3111.00
16:25:46:004 -> 3104.00
16:25:46:004 -> 3159.00
16:25:46:004 -> 3085.00
16:25:46:004 -> 3070.00
16:25:46:004 -> 3175.00
16:25:46:029 -> 3049.00
16:25:46:029 -> 3083.00
16:25:46:029 -> 3161.00
16:25:46:029 -> 3087.00
16:25:46:029 -> 3005.00
16:25:46:029 -> 3112.00
16:25:46:029 -> 3118.00
16:25:46:029 -> 3038.00
16:25:46:029 -> 3062.00
16:25:46:029 -> 3126.00
16:25:46:029 -> 3241.00
16:25:46:029 -> 3350.00
16:25:46:029 -> 3131.00
16:25:46:029 -> 3382.00
16:25:46:029 -> 3166.00
16:25:46:029 -> 3187.00
16:25:46:029 -> 3108.00
16:25:46:029 -> 3094.00
16:25:46:029 -> 3385.00
16:25:46:029 -> 3194.00
16:25:46:029 -> 3133.00
16:25:46:029 -> 3066.00
16:25:46:029 -> 3024.00
16:25:46:029 -> 3112.00
16:25:46:029 -> 3182.00
16:25:46:029 -> 3223.00
16:25:46:029 -> 3152.00
16:25:46:029 -> 3220.00
16:25:46:029 -> 3243.00
16:25:46:029 -> 3117.00
16:25:46:029 -> 3218.00
16:25:46:029 -> 3481.00
16:25:46:029 -> 3376.00
16:25:46:029 -> 3146.00
16:25:46:029 -> 3128.00
16:25:46:029 -> 3104.00
16:25:46:029 -> 3186.00
16:25:46:029 -> 3109.00
16:25:46:029 -> 3166.00
16:25:46:029 -> 2937.00
16:25:46:029 -> 2895.00
16:25:46:029 -> 3032.00
16:25:46:029 -> 3230.00
16:25:46:035 -> 3216.00
16:25:46:035 -> 3147.00
16:25:46:035 -> 3089.00
16:25:46:035 -> 3137.00
16:25:46:063 -> 3182.00
16:25:46:063 -> 3166.00
16:25:46:063 -> 3192.00
16:25:46:063 -> 3069.00
16:25:46:063 -> 3130.00
16:25:46:063 -> 3220.00
16:25:46:063 -> 3406.00
16:25:46:063 -> 3013.00
16:25:46:063 -> 3082.00
16:25:46:063 -> 3256.00
16:25:46:063 -> 3288.00
16:25:46:063 -> 3244.00
16:25:46:063 -> 3287.00
16:25:46:063 -> 3200.00
16:25:46:081 -> 3232.00
16:25:46:081 -> 3148.00
16:25:46:081 -> 3107.00
16:25:46:081 -> 3215.00
16:25:46:081 -> 3100.00
16:25:46:081 -> 3235.00
16:25:46:081 -> 3407.00
16:25:46:081 -> 3168.00
16:25:46:081 -> 3142.00
16:25:46:081 -> 3142.00
16:25:46:081 -> 3190.00
16:25:46:081 -> 3153.00
16:25:46:081 -> 3249.00
16:25:46:081 -> 3196.00
16:25:46:081 -> 3266.00
16:25:46:081 -> 3118.00
16:25:46:081 -> 2922.00
16:25:46:081 -> 2881.00
16:25:46:081 -> 3154.00
16:25:46:081 -> 3082.00
16:25:46:081 -> 3176.00
16:25:46:081 -> 3368.00
16:25:46:081 -> 3221.00
16:25:46:081 -> 3029.00
16:25:46:081 -> 2922.00
16:25:46:083 -> 3146.00
16:25:46:083 -> 3421.00
16:25:46:095 -> 3167.00
16:25:46:095 -> 3138.00
16:25:46:095 -> 3143.00
16:25:46:095 -> 3349.00
16:25:46:095 -> 3175.00
16:25:46:095 -> 3129.00
16:25:46:095 -> 3130.00
16:25:46:095 -> 3040.00
16:25:46:109 -> 3050.00
16:25:46:109 -> 3189.00
16:25:46:109 -> 3122.00
16:25:46:109 -> 3161.00
16:25:46:109 -> 2947.00
16:25:46:109 -> 3156.00
16:25:46:109 -> 3455.00
16:25:46:109 -> 3399.00
16:25:46:109 -> 3264.00
16:25:46:109 -> 3204.00
16:25:46:109 -> 3250.00
16:25:46:109 -> 3253.00
16:25:46:109 -> 3160.00
16:25:46:109 -> 3171.00
16:25:46:110 -> 3264.00
16:25:46:111 -> 3106.00
16:25:46:113 -> 3088.00
16:25:46:114 -> 3212.00
16:25:46:115 -> 3197.00
16:25:46:116 -> 3093.00
16:25:46:117 -> 3171.00
16:25:46:119 -> 2998.00
16:25:46:120 -> 3172.00
16:25:46:121 -> 3274.00
16:25:46:123 -> 3362.00
16:25:46:123 -> 3117.00
16:25:46:125 -> 3245.00
16:25:46:126 -> 3152.00
16:25:46:127 -> 3117.00
16:25:46:128 -> 3133.00
16:25:46:129 -> 3158.00
16:25:46:130 -> 3143.00
16:25:46:132 -> 3178.00
16:25:46:133 -> 3189.00
16:25:46:134 -> 3131.00
16:25:46:135 -> 3150.00
16:25:46:137 -> 3213.00
16:25:46:138 -> 3225.00
16:25:46:139 -> 3302.00
16:25:46:140 -> 3241.00
16:25:46:141 -> 3204.00
16:25:46:142 -> 3098.00
16:25:46:144 -> 3185.00
16:25:46:145 -> 3208.00
16:25:46:146 -> 3122.00
16:25:46:147 -> 3090.00
16:25:46:148 -> 3189.00
16:25:46:150 -> 3265.00
16:25:46:151 -> 3182.00
16:25:46:153 -> 3185.00
16:25:46:153 -> 3162.00
16:25:46:154 -> 3194.00
16:25:46:156 -> 3153.00
16:25:46:157 -> 3170.00
16:25:46:158 -> 3197.00
16:25:46:159 -> 3213.00
16:25:46:164 -> 3075.00
16:25:46:164 -> 3132.00
16:25:46:164 -> 3114.00
16:25:46:165 -> 3156.00
16:25:46:165 -> 3099.00
16:25:46:166 -> 3055.00
16:25:46:168 -> 3140.00
16:25:46:169 -> 3166.00
16:25:46:170 -> 3078.00
16:25:46:171 -> 3214.00
16:25:46:175 -> 3189.00
16:25:46:175 -> 3250.00
16:25:46:175 -> 3072.00
16:25:46:176 -> 3147.00
16:25:46:177 -> 3284.00
16:25:46:178 -> 3234.00
16:25:46:179 -> 3160.00
16:25:46:185 -> 3257.00
16:25:46:185 -> 3238.00
16:25:46:185 -> 3224.00
16:25:46:185 -> 3217.00
16:25:46:189 -> 3155.00
16:25:46:189 -> 3192.00
16:25:46:189 -> 3266.00
16:25:46:189 -> 3215.00
16:25:46:190 -> 3195.00
16:25:46:193 -> 3150.00
16:25:46:198 -> 3181.00
16:25:46:198 -> 3198.00
16:25:46:198 -> 3170.00
16:25:46:198 -> 3184.00
16:25:46:198 -> 3178.00
16:25:46:213 -> 3221.00
16:25:46:213 -> 3195.00
16:25:46:213 -> 3206.00
16:25:46:213 -> 3171.00
16:25:46:213 -> 3125.00
16:25:46:213 -> 3125.00
16:25:46:213 -> 3189.00
16:25:46:213 -> 3131.00
16:25:46:213 -> 3148.00
16:25:46:213 -> 3200.00
16:25:46:213 -> 3185.00
16:25:46:213 -> 3142.00
16:25:46:213 -> 3184.00
16:25:46:214 -> 3200.00
16:25:46:215 -> 3216.00
16:25:46:216 -> 3218.00
16:25:46:217 -> 3163.00
16:25:46:219 -> 3149.00
16:25:46:220 -> 3170.00
16:25:46:221 -> 3169.00
16:25:46:222 -> 3250.00
16:25:46:223 -> 3243.00
16:25:46:224 -> 3215.00
16:25:46:226 -> 3184.00
16:25:46:227 -> 3160.00
16:25:46:228 -> 3158.00
16:25:46:229 -> 3130.00
16:25:46:231 -> 3139.00
16:25:46:232 -> 3133.00
16:25:46:233 -> 3083.00
16:25:46:234 -> 3089.00
16:25:46:235 -> 3164.00
16:25:46:236 -> 3168.00
16:25:46:238 -> 3173.00
16:25:46:239 -> 3154.00
16:25:46:240 -> 3146.00
16:25:46:241 -> 3193.00
16:25:46:242 -> 3242.00
16:25:46:244 -> 3253.00
16:25:46:245 -> 3222.00
16:25:46:246 -> 3204.00
16:25:46:247 -> 3184.00
16:25:46:248 -> 3153.00
16:25:46:250 -> 3156.00
16:25:46:251 -> 3171.00
16:25:46:252 -> 3195.00
16:25:46:253 -> 3173.00
16:25:46:254 -> 3192.00
16:25:46:255 -> 3197.00
16:25:46:257 -> 3242.00
16:25:46:258 -> 3206.00
16:25:46:259 -> 3224.00
16:25:46:261 -> 3133.00
16:25:46:261 -> 3241.00
16:25:46:263 -> 3245.00
16:25:46:265 -> 3237.00
16:25:46:268 -> 3211.00
16:25:46:268 -> 3196.00
16:25:46:268 -> 3170.00
16:25:46:269 -> 3160.00
16:25:46:270 -> 3180.00
16:25:46:271 -> 3175.00
16:25:46:272 -> 3179.00
16:25:46:273 -> 3195.00
16:25:46:274 -> 3204.00
16:25:46:276 -> 3209.00
16:25:46:277 -> 3193.00
16:25:46:278 -> 3185.00
16:25:46:280 -> 3173.00
16:25:46:281 -> 3220.00
16:25:46:282 -> 3217.00
16:25:46:283 -> 3188.00
16:25:46:284 -> 3187.00
16:25:46:285 -> 3185.00
16:25:46:286 -> 3209.00
16:25:46:288 -> 3218.00
16:25:46:289 -> 3178.00
16:25:46:290 -> 3171.00
16:25:46:291 -> 3107.00
16:25:46:292 -> 3113.00
16:25:46:294 -> 3153.00
16:25:46:295 -> 3233.00
16:25:46:296 -> 3229.00
16:25:46:298 -> 3203.00
16:25:46:302 -> 3227.00
16:25:46:302 -> 3200.00
16:25:46:302 -> 3180.00
16:25:46:302 -> 3221.00
16:25:46:310 -> 3197.00
16:25:46:310 -> 3231.00
16:25:46:310 -> 3220.00
16:25:46:310 -> 3220.00
16:25:46:310 -> 3223.00
16:25:46:310 -> 3225.00
16:25:46:311 -> 3138.00
16:25:46:311 -> 3161.00
16:25:46:313 -> 3170.00
16:25:46:316 -> 3198.00
16:25:46:316 -> 3205.00
16:25:46:316 -> 3188.00
16:25:46:317 -> 3183.00
16:25:46:319 -> 3183.00
16:25:46:328 -> 3154.00
16:25:46:328 -> 3147.00
16:25:46:328 -> 3234.00
16:25:46:328 -> 3217.00
16:25:46:328 -> 3271.00
16:25:46:328 -> 3202.00
16:25:46:328 -> 3195.00
16:25:46:329 -> 3169.00
16:25:46:330 -> 3172.00
16:25:46:330 -> 3134.00
16:25:46:332 -> 3153.00
16:25:46:335 -> 3159.00
16:25:46:335 -> 3159.00
16:25:46:335 -> 3181.00
16:25:46:339 -> 3201.00
16:25:46:339 -> 3201.00
16:25:46:344 -> 3187.00
16:25:46:344 -> 3210.00
16:25:46:352 -> 3193.00
16:25:46:352 -> 3277.00
16:25:46:352 -> 3245.00
16:25:46:352 -> 3188.00
16:25:46:352 -> 3189.00
16:25:46:352 -> 3207.00
16:25:46:382 -> 3188.00
16:25:46:382 -> 3168.00
16:25:46:382 -> 3186.00
16:25:46:382 -> 3177.00
16:25:46:382 -> 3166.00
16:25:46:382 -> 3187.00
16:25:46:382 -> 3179.00
16:25:46:382 -> 3177.00
16:25:46:401 -> 3191.00
16:25:46:401 -> 3159.00
16:25:46:401 -> 3151.00
16:25:46:401 -> 3191.00
16:25:46:401 -> 3175.00
16:25:46:401 -> 3166.00
16:25:46:401 -> 3200.00
16:25:46:401 -> 3187.00
16:25:46:401 -> 3190.00
16:25:46:401 -> 3197.00
16:25:46:401 -> 3180.00
16:25:46:401 -> 3184.00
16:25:46:401 -> 3186.00
16:25:46:401 -> 3183.00
16:25:46:401 -> 3204.00
16:25:46:401 -> 3196.00
16:25:46:401 -> 3208.00
16:25:46:401 -> 3199.00
16:25:46:401 -> 3190.00
16:25:46:401 -> 3166.00
16:25:46:401 -> 3203.00
16:25:46:401 -> 3230.00
16:25:46:401 -> 3230.00
16:25:46:415 -> 3224.00
16:25:46:415 -> 3210.00
16:25:46:415 -> 3164.00
16:25:46:415 -> 3189.00
16:25:46:415 -> 3173.00
16:25:46:415 -> 3153.00
16:25:46:415 -> 3106.00
16:25:46:415 -> 3156.00
16:25:46:415 -> 3176.00
16:25:46:415 -> 3173.00
16:25:46:415 -> 3173.00
16:25:46:415 -> 3208.00
16:25:46:415 -> 3217.00
16:25:46:415 -> 3207.00
16:25:46:415 -> 3187.00
16:25:46:415 -> 3230.00
16:25:46:422 -> 3190.00
16:25:46:422 -> 3231.00
16:25:46:422 -> 3212.00
16:25:46:422 -> 3203.00
16:25:46:422 -> 3179.00
16:25:46:422 -> 3175.00
16:25:46:422 -> 3166.00
16:25:46:422 -> 3145.00
16:25:46:422 -> 3175.00
16:25:46:422 -> 3194.00
16:25:46:422 -> 3180.00
16:25:46:422 -> 3187.00
16:25:46:422 -> 3219.00
16:25:46:422 -> 3172.00
16:25:46:422 -> 3198.00
16:25:46:426 -> 3207.00
16:25:46:426 -> 3223.00
16:25:46:426 -> 3224.00
16:25:46:426 -> 3228.00
16:25:46:433 -> 3202.00
16:25:46:433 -> 3187.00
16:25:46:433 -> 3188.00
16:25:46:433 -> 3188.00
16:25:46:433 -> 3177.00
16:25:46:433 -> 3159.00
16:25:46:434 -> 3169.00
16:25:46:435 -> 3149.00
16:25:46:441 -> 3187.00
16:25:46:441 -> 3116.00
16:25:46:441 -> 3158.00
16:25:46:441 -> 3193.00
16:25:46:442 -> 3192.00
16:25:46:442 -> 3191.00
16:25:46:447 -> 3208.00
16:25:46:447 -> 3201.00
16:25:46:447 -> 3217.00
16:25:46:448 -> 3188.00
16:25:46:448 -> 3180.00
16:25:46:450 -> 3195.00
16:25:46:476 -> 3187.00
16:25:46:476 -> 3166.00
16:25:46:476 -> 3155.00
16:25:46:476 -> 3184.00
16:25:46:476 -> 3127.00
16:25:46:476 -> 3197.00
16:25:46:476 -> 3212.00
16:25:46:476 -> 3209.00
16:25:46:476 -> 3195.00
16:25:46:476 -> 3228.00
16:25:46:476 -> 3201.00
16:25:46:476 -> 3230.00
16:25:46:476 -> 3199.00
16:25:46:476 -> 3217.00
16:25:46:476 -> 3215.00
16:25:46:476 -> 3185.00
16:25:46:476 -> 3172.00
16:25:46:476 -> 3171.00
16:25:46:476 -> 3135.00
16:25:46:487 -> 3147.00
16:25:46:487 -> 3209.00
16:25:46:487 -> 3184.00
16:25:46:487 -> 3192.00
16:25:46:487 -> 3191.00
16:25:46:487 -> 3193.00
16:25:46:487 -> 3161.00
16:25:46:487 -> 3181.00
16:25:46:487 -> 3209.00
16:25:46:487 -> 3183.00
16:25:46:487 -> 3197.00
16:25:46:487 -> 3213.00
16:25:46:489 -> 3198.00
16:25:46:489 -> 3191.00
16:25:46:493 -> 3216.00
16:25:46:493 -> 3197.00
16:25:46:493 -> 3169.00
16:25:46:494 -> 3173.00
16:25:46:495 -> 3172.00
16:25:46:496 -> 3186.00
16:25:46:497 -> 3210.00
16:25:46:499 -> 3223.00
16:25:46:500 -> 3219.00
16:25:46:501 -> 3221.00
16:25:46:502 -> 3252.00
16:25:46:530 -> 3190.00
16:25:46:534 -> 3209.00
16:25:46:534 -> 3241.00
16:25:46:534 -> 3229.00
16:25:46:534 -> 3214.00
16:25:46:534 -> 3258.00
16:25:46:534 -> 3231.00
16:25:46:534 -> 3191.00
16:25:46:534 -> 3114.00
16:25:46:534 -> 3168.00
16:25:46:534 -> 3171.00
16:25:46:534 -> 3198.00
16:25:46:534 -> 3200.00
16:25:46:534 -> 3189.00
16:25:46:534 -> 3201.00
16:25:46:534 -> 3198.00
16:25:46:534 -> 3165.00
16:25:46:534 -> 3227.00
16:25:46:534 -> 3216.00
16:25:46:534 -> 3206.00
16:25:46:534 -> 3208.00
16:25:46:534 -> 3193.00
16:25:46:534 -> 3193.00
16:25:46:534 -> 3158.00
16:25:46:534 -> 3174.00
16:25:46:534 -> 3155.00
16:25:46:541 -> 3152.00
16:25:46:541 -> 3187.00
16:25:46:541 -> 3190.00
16:25:46:541 -> 3211.00
16:25:46:541 -> 3164.00
16:25:46:541 -> 3209.00
16:25:46:544 -> 3221.00
16:25:46:544 -> 3245.00
16:25:46:549 -> 3287.00
16:25:46:549 -> 3224.00
16:25:46:549 -> 3228.00
16:25:46:549 -> 3224.00
16:25:46:549 -> 3195.00
16:25:46:550 -> 3201.00
16:25:46:551 -> 3194.00
16:25:46:552 -> 3226.00
16:25:46:553 -> 3196.00
16:25:46:554 -> 3197.00
16:25:46:559 -> 3194.00
16:25:46:559 -> 3196.00
16:25:46:559 -> 3205.00
16:25:46:559 -> 3190.00
16:25:46:561 -> 3206.00
16:25:46:562 -> 3225.00
16:25:46:563 -> 3256.00
16:25:46:564 -> 3218.00
16:25:46:565 -> 3225.00
16:25:46:566 -> 3221.00
16:25:46:567 -> 3219.00
16:25:46:569 -> 3186.00
16:25:46:570 -> 3194.00
16:25:46:572 -> 3207.00
16:25:46:573 -> 3143.00
16:25:46:574 -> 3190.00
16:25:46:575 -> 3188.00
16:25:46:576 -> 3169.00
16:25:46:628 -> 3191.00
16:25:46:628 -> 3201.00
16:25:46:628 -> 3226.00
16:25:46:628 -> 3230.00
16:25:46:628 -> 3248.00
16:25:46:628 -> 3222.00
16:25:46:628 -> 3224.00
16:25:46:628 -> 3207.00
16:25:46:628 -> 3233.00
16:25:46:628 -> 3213.00
16:25:46:628 -> 3219.00
16:25:46:628 -> 3239.00
16:25:46:628 -> 3211.00
16:25:46:628 -> 3154.00
16:25:46:628 -> 3168.00
16:25:46:628 -> 3200.00
16:25:46:628 -> 3179.00
16:25:46:628 -> 3224.00
16:25:46:628 -> 3223.00
16:25:46:628 -> 3217.00
16:25:46:628 -> 3216.00
16:25:46:628 -> 3199.00
16:25:46:628 -> 3186.00
16:25:46:628 -> 3219.00
16:25:46:628 -> 3208.00
16:25:46:628 -> 3255.00
16:25:46:628 -> 3216.00
16:25:46:628 -> 3187.00
16:25:46:628 -> 3168.00
16:25:46:628 -> 3179.00
16:25:46:628 -> 3181.00
16:25:46:628 -> 3157.00
16:25:46:628 -> 3184.00
16:25:46:628 -> 3171.00
16:25:46:628 -> 3199.00
16:25:46:628 -> 3156.00
16:25:46:628 -> 3190.00
16:25:46:628 -> 3193.00
16:25:46:628 -> 3262.00
16:25:46:628 -> 3268.00
16:25:46:628 -> 3215.00
16:25:46:628 -> 3244.00
16:25:46:628 -> 3217.00
16:25:46:668 -> 3217.00
16:25:46:668 -> 3188.00
16:25:46:668 -> 3178.00
16:25:46:668 -> 3190.00
16:25:46:668 -> 3185.00
16:25:46:668 -> 3179.00
16:25:46:668 -> 3178.00
16:25:46:668 -> 3216.00
16:25:46:668 -> 3201.00
16:25:46:668 -> 3199.00
16:25:46:668 -> 3209.00
16:25:46:668 -> 3207.00
16:25:46:668 -> 3255.00
16:25:46:668 -> 3239.00
16:25:46:668 -> 3224.00
16:25:46:668 -> 3230.00
16:25:46:668 -> 3211.00
16:25:46:668 -> 3202.00
16:25:46:668 -> 3213.00
16:25:46:668 -> 3191.00
16:25:46:668 -> 3149.00
16:25:46:668 -> 3131.00
16:25:46:668 -> 3200.00
16:25:46:668 -> 3178.00
16:25:46:668 -> 3203.00
16:25:46:668 -> 3214.00
16:25:46:668 -> 3213.00
16:25:46:668 -> 3268.00
16:25:46:668 -> 3249.00
16:25:46:668 -> 3225.00
16:25:46:668 -> 3246.00
16:25:46:668 -> 3235.00
16:25:46:668 -> 3228.00
16:25:46:668 -> 3215.00
16:25:46:720 -> 3192.00
16:25:46:720 -> 3188.00
16:25:46:720 -> 3171.00
16:25:46:720 -> 3133.00
16:25:46:720 -> 3185.00
16:25:46:720 -> 3166.00
16:25:46:720 -> 3192.00
16:25:46:720 -> 3199.00
16:25:46:720 -> 3193.00
16:25:46:720 -> 3184.00
16:25:46:720 -> 3184.00
16:25:46:720 -> 3191.00
16:25:46:720 -> 3238.00
16:25:46:720 -> 3274.00
16:25:46:720 -> 3235.00
16:25:46:720 -> 3239.00
16:25:46:720 -> 3220.00
16:25:46:720 -> 3197.00
16:25:46:734 -> 3201.00
16:25:46:734 -> 3184.00
16:25:46:734 -> 3203.00
16:25:46:734 -> 3233.00
16:25:46:734 -> 3186.00
16:25:46:734 -> 3197.00
16:25:46:734 -> 3217.00
16:25:46:734 -> 3171.00
16:25:46:734 -> 3177.00
16:25:46:734 -> 3229.00
16:25:46:734 -> 3196.00
16:25:46:734 -> 3214.00
16:25:46:734 -> 3223.00
16:25:46:734 -> 3226.00
16:25:46:734 -> 3202.00
16:25:46:734 -> 3215.00
16:25:46:734 -> 3186.00
16:25:46:734 -> 3162.00
16:25:46:734 -> 3178.00
16:25:46:734 -> 3178.00
16:25:46:734 -> 3183.00
16:25:46:734 -> 3191.00
16:25:46:734 -> 3207.00
16:25:46:734 -> 3205.00
16:25:46:734 -> 3209.00
16:25:46:734 -> 3227.00
16:25:46:734 -> 3207.00
16:25:46:734 -> 3236.00
16:25:46:734 -> 3228.00
16:25:46:734 -> 3242.00
16:25:46:734 -> 3245.00
16:25:46:734 -> 3247.00
16:25:46:734 -> 3228.00
16:25:46:734 -> 3211.00
16:25:46:734 -> 3198.00
16:25:46:734 -> 3189.00
16:25:46:734 -> 3156.00
16:25:46:738 -> 3200.00
16:25:46:738 -> 3180.00
16:25:46:738 -> 3174.00
16:25:46:738 -> 3227.00
16:25:46:746 -> 3236.00
16:25:46:746 -> 3218.00
16:25:46:746 -> 3209.00
16:25:46:746 -> 3193.00
16:25:46:746 -> 3212.00
16:25:46:746 -> 3201.00
16:25:46:746 -> 3221.00
16:25:46:775 -> 3222.00
16:25:46:775 -> 3229.00
16:25:46:775 -> 3229.00
16:25:46:775 -> 3193.00
16:25:46:775 -> 3178.00
16:25:46:775 -> 3158.00
16:25:46:775 -> 3181.00
16:25:46:775 -> 3167.00
16:25:46:775 -> 3206.00
16:25:46:775 -> 3212.00
16:25:46:775 -> 3220.00
16:25:46:775 -> 3181.00
16:25:46:775 -> 3210.00
16:25:46:775 -> 3253.00
16:25:46:786 -> 3224.00
16:25:46:786 -> 3236.00
16:25:46:786 -> 3207.00
16:25:46:786 -> 3226.00
16:25:46:786 -> 3189.00
16:25:46:786 -> 3197.00
16:25:46:786 -> 3203.00
16:25:46:786 -> 3229.00
16:25:46:786 -> 3213.00
16:25:46:786 -> 3195.00
16:25:46:786 -> 3199.00
16:25:46:786 -> 3210.00
16:25:46:786 -> 3187.00
16:25:46:786 -> 3191.00
16:25:46:786 -> 3189.00
16:25:46:786 -> 3201.00
16:25:46:786 -> 3200.00
16:25:46:786 -> 3221.00
16:25:46:786 -> 3202.00
16:25:46:795 -> 3223.00
16:25:46:795 -> 3217.00
16:25:46:795 -> 3219.00
16:25:46:795 -> 3191.00
16:25:46:795 -> 3169.00
16:25:46:795 -> 3201.00
16:25:46:795 -> 3220.00
16:25:46:795 -> 3199.00
16:25:46:803 -> 3221.00
16:25:46:803 -> 3206.00
16:25:46:803 -> 3199.00
16:25:46:803 -> 3232.00
16:25:46:803 -> 3228.00
16:25:46:804 -> 3260.00
16:25:46:804 -> 3258.00
16:25:46:810 -> 3236.00
16:25:46:810 -> 3243.00
16:25:46:810 -> 3220.00
16:25:46:810 -> 3238.00
16:25:46:810 -> 3261.00
16:25:46:811 -> 3208.00
16:25:46:812 -> 3190.00
16:25:46:814 -> 3184.00
16:25:46:814 -> 3217.00
16:25:46:815 -> 3203.00
16:25:46:816 -> 3192.00
16:25:46:817 -> 3190.00
16:25:46:819 -> 3225.00
16:25:46:820 -> 3220.00
16:25:46:821 -> 3206.00
16:25:46:822 -> 3276.00
16:25:46:824 -> 3248.00
16:25:46:826 -> 3217.00
16:25:46:826 -> 3225.00
16:25:46:833 -> 3242.00
16:25:46:833 -> 3209.00
16:25:46:833 -> 3208.00
16:25:46:833 -> 3192.00
16:25:46:833 -> 3181.00
16:25:46:833 -> 3207.00
16:25:46:834 -> 3193.00
16:25:46:835 -> 3201.00
16:25:46:839 -> 3201.00
16:25:46:839 -> 3208.00
16:25:46:839 -> 3205.00
16:25:46:840 -> 3197.00
16:25:46:841 -> 3230.00
16:25:46:842 -> 3249.00
16:25:46:843 -> 3252.00
16:25:46:845 -> 3234.00
16:25:46:847 -> 3238.00
16:25:46:848 -> 3223.00
16:25:46:850 -> 3219.00
16:25:46:850 -> 3221.00
16:25:46:852 -> 3212.00
16:25:46:852 -> 3177.00
16:25:46:853 -> 3201.00
16:25:46:854 -> 3198.00
16:25:46:855 -> 3198.00
16:25:46:857 -> 3193.00
16:25:46:858 -> 3204.00
16:25:46:859 -> 3199.00
16:25:46:860 -> 3213.00
16:25:46:862 -> 3232.00
16:25:46:864 -> 3256.00
16:25:46:864 -> 3234.00
16:25:46:865 -> 3230.00
16:25:46:866 -> 3218.00
16:25:46:867 -> 3216.00
16:25:46:869 -> 3207.00
16:25:46:870 -> 3183.00
16:25:46:871 -> 3187.00
16:25:46:872 -> 3179.00
16:25:46:873 -> 3193.00
16:25:46:874 -> 3188.00
16:25:46:876 -> 3217.00
16:25:46:877 -> 3213.00
16:25:46:878 -> 3197.00
16:25:46:879 -> 3175.00
16:25:46:880 -> 3218.00
16:25:46:882 -> 3247.00
16:25:46:883 -> 3250.00
16:25:46:884 -> 3223.00
16:25:46:885 -> 3228.00
16:25:46:886 -> 3225.00
16:25:46:888 -> 3221.00
16:25:46:889 -> 3224.00
16:25:46:891 -> 3215.00
16:25:46:891 -> 3187.00
16:25:46:892 -> 3204.00
16:25:46:897 -> 3213.00
16:25:46:897 -> 3179.00
16:25:46:897 -> 3194.00
16:25:46:897 -> 3207.00
16:25:46:912 -> 3182.00
16:25:46:912 -> 3220.00
16:25:46:912 -> 3200.00
16:25:46:912 -> 3249.00
16:25:46:912 -> 3224.00
16:25:46:912 -> 3237.00
16:25:46:912 -> 3207.00
16:25:46:912 -> 3228.00
16:25:46:914 -> 3223.00
16:25:46:914 -> 3213.00
16:25:46:914 -> 3164.00
16:25:46:914 -> 3189.00
16:25:46:914 -> 3163.00
16:25:46:914 -> 3192.00
16:25:46:916 -> 3200.00
16:25:46:918 -> 3200.00
16:25:46:918 -> 3208.00
16:25:46:932 -> 3180.00
16:25:46:932 -> 3191.00
16:25:46:932 -> 3235.00
16:25:46:932 -> 3242.00
16:25:46:932 -> 3264.00
16:25:46:932 -> 3228.00
16:25:46:932 -> 3243.00
16:25:46:932 -> 3238.00
16:25:46:932 -> 3236.00
16:25:46:932 -> 3194.00
16:25:46:932 -> 3213.00
16:25:46:932 -> 3201.00
16:25:46:953 -> 3192.00
16:25:46:953 -> 3208.00
16:25:46:953 -> 3218.00
16:25:46:953 -> 3228.00
16:25:46:953 -> 3210.00
16:25:46:953 -> 3229.00
16:25:46:953 -> 3214.00
16:25:46:953 -> 3219.00
16:25:46:953 -> 3255.00
16:25:46:953 -> 3202.00
16:25:46:953 -> 3222.00
16:25:46:953 -> 3216.00
16:25:46:953 -> 3218.00
16:25:46:953 -> 3243.00
16:25:46:953 -> 3223.00
16:25:46:953 -> 3186.00
16:25:46:953 -> 3201.00
16:25:46:959 -> 3169.00
16:25:46:959 -> 3206.00
16:25:46:959 -> 3207.00
16:25:46:959 -> 3195.00
16:25:46:959 -> 3219.00
16:25:46:965 -> 3252.00
16:25:46:965 -> 3200.00
16:25:46:965 -> 3241.00
16:25:46:965 -> 3231.00
16:25:46:965 -> 3263.00
16:25:46:973 -> 3232.00
16:25:46:973 -> 3229.00
16:25:46:973 -> 3207.00
16:25:46:973 -> 3216.00
16:25:46:973 -> 3203.00
16:25:46:989 -> 3179.00
16:25:46:989 -> 3194.00
16:25:46:989 -> 3197.00
16:25:46:989 -> 3191.00
16:25:46:989 -> 3198.00
16:25:46:989 -> 3217.00
16:25:46:989 -> 3188.00
16:25:46:989 -> 3183.00
16:25:46:989 -> 3201.00
16:25:46:989 -> 3255.00
16:25:46:989 -> 3255.00
16:25:46:989 -> 3243.00
16:25:46:989 -> 3245.00
16:25:46:989 -> 3234.00
16:25:46:989 -> 3235.00
16:25:47:008 -> 3223.00
16:25:47:008 -> 3194.00
16:25:47:008 -> 3181.00
16:25:47:008 -> 3179.00
16:25:47:008 -> 3171.00
16:25:47:008 -> 3208.00
16:25:47:008 -> 3198.00
16:25:47:008 -> 3205.00
16:25:47:008 -> 3200.00
16:25:47:008 -> 3234.00
16:25:47:008 -> 3201.00
16:25:47:008 -> 3303.00
16:25:47:008 -> 3270.00
16:25:47:008 -> 3233.00
16:25:47:008 -> 3245.00
16:25:47:008 -> 3230.00
16:25:47:008 -> 3229.00
16:25:47:024 -> 3188.00
16:25:47:024 -> 3177.00
16:25:47:024 -> 3183.00
16:25:47:024 -> 3218.00
16:25:47:024 -> 3182.00
16:25:47:024 -> 3202.00
16:25:47:024 -> 3212.00
16:25:47:024 -> 3248.00
16:25:47:024 -> 3221.00
16:25:47:024 -> 3208.00
16:25:47:024 -> 3218.00
16:25:47:024 -> 3236.00
16:25:47:024 -> 3273.00
16:25:47:074 -> 3264.00
16:25:47:074 -> 3254.00
16:25:47:074 -> 3281.00
16:25:47:074 -> 3237.00
16:25:47:074 -> 3212.00
16:25:47:074 -> 3202.00
16:25:47:074 -> 3174.00
16:25:47:074 -> 3163.00
16:25:47:074 -> 3216.00
16:25:47:074 -> 3215.00
16:25:47:074 -> 3219.00
16:25:47:074 -> 3199.00
16:25:47:108 -> 3215.00
16:25:47:108 -> 3224.00
16:25:47:108 -> 3235.00
16:25:47:108 -> 3196.00
16:25:47:108 -> 3208.00
16:25:47:108 -> 3224.00
16:25:47:108 -> 3248.00
16:25:47:108 -> 3226.00
16:25:47:108 -> 3229.00
16:25:47:108 -> 3212.00
16:25:47:108 -> 3201.00
16:25:47:108 -> 3193.00
16:25:47:108 -> 3184.00
16:25:47:108 -> 3205.00
16:25:47:108 -> 3230.00
16:25:47:108 -> 3197.00
16:25:47:108 -> 3198.00
16:25:47:108 -> 3193.00
16:25:47:108 -> 3193.00
16:25:47:108 -> 3241.00
16:25:47:108 -> 3201.00
16:25:47:108 -> 3211.00
16:25:47:108 -> 3245.00
16:25:47:108 -> 3230.00
16:25:47:108 -> 3208.00
16:25:47:108 -> 3203.00
16:25:47:108 -> 3186.00
16:25:47:108 -> 3214.00
16:25:47:108 -> 3214.00
16:25:47:108 -> 3185.00
16:25:47:108 -> 3235.00
16:25:47:108 -> 3208.00
16:25:47:108 -> 3214.00
16:25:47:108 -> 3228.00
16:25:47:108 -> 3249.00
16:25:47:108 -> 3241.00
16:25:47:108 -> 3190.00
16:25:47:108 -> 3238.00
16:25:47:108 -> 3255.00
16:25:47:115 -> 3257.00
16:25:47:115 -> 3251.00
16:25:47:115 -> 3240.00
16:25:47:115 -> 3258.00
16:25:47:115 -> 3211.00
16:25:47:115 -> 3227.00
16:25:47:115 -> 3228.00
16:25:47:115 -> 3228.00
16:25:47:115 -> 3218.00
16:25:47:115 -> 3215.00
16:25:47:115 -> 3204.00
16:25:47:115 -> 3211.00
16:25:47:115 -> 3249.00
16:25:47:115 -> 3252.00
16:25:47:115 -> 3238.00
16:25:47:115 -> 3245.00
16:25:47:115 -> 3250.00
16:25:47:115 -> 3241.00
16:25:47:115 -> 3252.00
16:25:47:115 -> 3225.00
16:25:47:115 -> 3242.00
16:25:47:115 -> 3192.00
16:25:47:116 -> 3188.00
16:25:47:116 -> 3246.00
16:25:47:116 -> 3208.00
16:25:47:116 -> 3199.00
16:25:47:116 -> 3207.00
16:25:47:118 -> 3228.00
16:25:47:118 -> 3230.00
16:25:47:120 -> 3253.00
16:25:47:121 -> 3262.00
16:25:47:122 -> 3237.00
16:25:47:123 -> 3269.00
16:25:47:124 -> 3247.00
16:25:47:126 -> 3243.00
16:25:47:127 -> 3240.00
16:25:47:128 -> 3243.00
16:25:47:129 -> 3198.00
16:25:47:130 -> 3201.00
16:25:47:132 -> 3187.00
16:25:47:133 -> 3199.00
16:25:47:134 -> 3214.00
16:25:47:135 -> 3208.00
16:25:47:136 -> 3218.00
16:25:47:138 -> 3217.00
16:25:47:139 -> 3219.00
16:25:47:140 -> 3220.00
16:25:47:141 -> 3223.00
16:25:47:142 -> 3255.00
16:25:47:143 -> 3259.00
16:25:47:145 -> 3245.00
16:25:47:146 -> 3240.00
16:25:47:147 -> 3227.00
16:25:47:148 -> 3247.00
16:25:47:149 -> 3231.00
16:25:47:151 -> 3205.00
16:25:47:152 -> 3193.00
16:25:47:153 -> 3163.00
16:25:47:155 -> 3219.00
16:25:47:156 -> 3205.00
16:25:47:157 -> 3221.00
16:25:47:158 -> 3227.00
16:25:47:160 -> 3229.00
16:25:47:161 -> 3252.00
16:25:47:161 -> 3239.00
16:25:47:162 -> 3252.00
16:25:47:164 -> 3261.00
16:25:47:165 -> 3238.00
16:25:47:166 -> 3235.00
16:25:47:167 -> 3219.00
16:25:47:168 -> 3178.00
16:25:47:170 -> 3214.00
16:25:47:171 -> 3200.00
16:25:47:172 -> 3136.00
16:25:47:173 -> 3130.00
16:25:47:174 -> 3178.00
16:25:47:176 -> 3217.00
16:25:47:177 -> 3200.00
16:25:47:178 -> 3207.00
16:25:47:180 -> 3232.00
16:25:47:181 -> 3242.00
16:25:47:181 -> 3289.00
16:25:47:183 -> 3217.00
16:25:47:184 -> 3239.00
16:25:47:185 -> 3256.00
16:25:47:186 -> 3256.00
16:25:47:188 -> 3241.00
16:25:47:189 -> 3248.00
16:25:47:190 -> 3239.00
16:25:47:191 -> 3220.00
16:25:47:192 -> 3226.00
16:25:47:193 -> 3211.00
16:25:47:195 -> 3221.00
16:25:47:196 -> 3215.00
16:25:47:197 -> 3242.00
16:25:47:198 -> 3229.00
16:25:47:199 -> 3224.00
16:25:47:201 -> 3253.00
16:25:47:202 -> 3253.00
16:25:47:203 -> 3283.00
16:25:47:204 -> 3237.00
16:25:47:205 -> 3232.00
16:25:47:206 -> 3241.00
16:25:47:208 -> 3239.00
16:25:47:209 -> 3206.00
16:25:47:210 -> 3192.00
16:25:47:213 -> 3223.00
16:25:47:213 -> 3219.00
16:25:47:221 -> 3182.00
16:25:47:221 -> 3212.00
16:25:47:221 -> 3232.00
16:25:47:221 -> 3229.00
16:25:47:221 -> 3198.00
16:25:47:221 -> 3221.00
16:25:47:231 -> 3233.00
16:25:47:231 -> 3260.00
16:25:47:231 -> 3254.00
16:25:47:231 -> 3231.00
16:25:47:231 -> 3245.00
16:25:47:231 -> 3230.00
16:25:47:231 -> 3233.00
16:25:47:231 -> 3198.00
16:25:47:231 -> 3208.00
16:25:47:237 -> 3172.00
16:25:47:237 -> 3240.00
16:25:47:237 -> 3203.00
16:25:47:237 -> 3215.00
16:25:47:237 -> 3225.00
16:25:47:239 -> 3175.00
16:25:47:239 -> 3205.00
16:25:47:249 -> 3222.00
16:25:47:249 -> 3244.00
16:25:47:249 -> 3268.00
16:25:47:249 -> 3260.00
16:25:47:249 -> 3219.00
16:25:47:249 -> 3252.00
16:25:47:249 -> 3231.00
16:25:47:249 -> 3228.00
16:25:47:263 -> 3213.00
16:25:47:263 -> 3232.00
16:25:47:263 -> 3180.00
16:25:47:263 -> 3196.00
16:25:47:263 -> 3219.00
16:25:47:263 -> 3221.00
16:25:47:263 -> 3210.00
16:25:47:263 -> 3244.00
16:25:47:263 -> 3223.00
16:25:47:263 -> 3224.00
16:25:47:263 -> 3213.00
16:25:47:269 -> 3258.00
16:25:47:269 -> 3222.00
16:25:47:269 -> 3253.00
16:25:47:269 -> 3255.00
16:25:47:270 -> 3245.00
16:25:47:270 -> 3270.00
16:25:47:270 -> 3221.00
16:25:47:271 -> 3222.00
16:25:47:272 -> 3225.00
16:25:47:273 -> 3252.00
16:25:47:274 -> 3208.00
16:25:47:276 -> 3213.00
16:25:47:277 -> 3222.00
16:25:47:278 -> 3227.00
16:25:47:279 -> 3222.00
16:25:47:280 -> 3162.00
16:25:47:282 -> 3234.00
16:25:47:283 -> 3275.00
16:25:47:284 -> 3264.00
16:25:47:285 -> 3246.00
16:25:47:286 -> 3246.00
16:25:47:288 -> 3229.00
16:25:47:289 -> 3196.00
16:25:47:290 -> 3244.00
16:25:47:291 -> 3251.00
16:25:47:292 -> 3243.00
16:25:47:293 -> 3220.00
16:25:47:295 -> 3212.00
16:25:47:296 -> 3222.00
16:25:47:297 -> 3229.00
16:25:47:298 -> 3213.00
16:25:47:299 -> 3183.00
16:25:47:301 -> 3229.00
16:25:47:303 -> 3255.00
16:25:47:312 -> 3297.00
16:25:47:312 -> 3253.00
16:25:47:312 -> 3248.00
16:25:47:333 -> 3241.00
16:25:47:333 -> 3226.00
16:25:47:333 -> 3220.00
16:25:47:333 -> 3241.00
16:25:47:333 -> 3248.00
16:25:47:333 -> 3203.00
16:25:47:333 -> 3195.00
16:25:47:333 -> 3223.00
16:25:47:333 -> 3235.00
16:25:47:333 -> 3237.00
16:25:47:333 -> 3233.00
16:25:47:333 -> 3237.00
16:25:47:333 -> 3234.00
16:25:47:333 -> 3206.00
16:25:47:333 -> 3248.00
16:25:47:333 -> 3233.00
16:25:47:333 -> 3246.00
16:25:47:333 -> 3247.00
16:25:47:333 -> 3238.00
16:25:47:333 -> 3229.00
16:25:47:333 -> 3234.00
16:25:47:333 -> 3204.00
16:25:47:333 -> 3186.00
16:25:47:352 -> 3203.00
16:25:47:352 -> 3202.00
16:25:47:352 -> 3198.00
16:25:47:352 -> 3218.00
16:25:47:352 -> 3219.00
16:25:47:352 -> 3234.00
16:25:47:352 -> 3244.00
16:25:47:352 -> 3245.00
16:25:47:352 -> 3230.00
16:25:47:352 -> 3219.00
16:25:47:352 -> 3222.00
16:25:47:352 -> 3239.00
16:25:47:352 -> 3244.00
16:25:47:352 -> 3313.00
16:25:47:352 -> 3223.00
16:25:47:356 -> 3162.00
16:25:47:356 -> 3179.00
16:25:47:356 -> 3191.00
16:25:47:356 -> 3213.00
16:25:47:362 -> 3232.00
16:25:47:362 -> 3228.00
16:25:47:362 -> 3245.00
16:25:47:362 -> 3272.00
16:25:47:362 -> 3276.00
16:25:47:374 -> 3244.00
16:25:47:374 -> 3269.00
16:25:47:374 -> 3233.00
16:25:47:374 -> 3249.00
16:25:47:374 -> 3274.00
16:25:47:374 -> 3247.00
16:25:47:374 -> 3236.00
16:25:47:374 -> 3208.00
16:25:47:374 -> 3151.00
16:25:47:374 -> 3178.00
16:25:47:381 -> 3190.00
16:25:47:381 -> 3208.00
16:25:47:381 -> 3221.00
16:25:47:381 -> 3224.00
16:25:47:381 -> 3216.00
16:25:47:381 -> 3231.00
16:25:47:383 -> 3236.00
16:25:47:383 -> 3234.00
16:25:47:392 -> 3272.00
16:25:47:392 -> 3263.00
16:25:47:392 -> 3237.00
16:25:47:392 -> 3247.00
16:25:47:392 -> 3249.00
16:25:47:392 -> 3222.00
16:25:47:392 -> 3232.00
16:25:47:395 -> 3202.00
16:25:47:395 -> 3243.00
16:25:47:395 -> 3233.00
16:25:47:396 -> 3211.00
16:25:47:399 -> 3214.00
16:25:47:399 -> 3219.00
16:25:47:403 -> 3220.00
16:25:47:403 -> 3228.00
16:25:47:403 -> 3256.00
16:25:47:405 -> 3280.00
16:25:47:405 -> 3259.00
16:25:47:410 -> 3242.00
16:25:47:410 -> 3239.00
16:25:47:410 -> 3255.00
16:25:47:410 -> 3246.00
16:25:47:412 -> 3234.00
16:25:47:412 -> 3229.00
16:25:47:414 -> 3194.00
16:25:47:414 -> 3208.00
16:25:47:472 -> 3233.00
16:25:47:472 -> 3228.00
16:25:47:472 -> 3226.00
16:25:47:472 -> 3239.00
16:25:47:472 -> 3263.00
16:25:47:472 -> 3225.00
16:25:47:472 -> 3221.00
16:25:47:472 -> 3233.00
16:25:47:472 -> 3222.00
16:25:47:472 -> 3255.00
16:25:47:472 -> 3235.00
16:25:47:472 -> 3213.00
16:25:47:472 -> 3219.00
16:25:47:472 -> 3205.00
16:25:47:472 -> 3207.00
16:25:47:472 -> 3189.00
16:25:47:472 -> 3177.00
16:25:47:472 -> 3192.00
16:25:47:472 -> 3192.00
16:25:47:513 -> 3215.00
16:25:47:513 -> 3179.00
16:25:47:513 -> 3190.00
16:25:47:513 -> 3226.00
16:25:47:513 -> 3222.00
16:25:47:513 -> 3249.00
16:25:47:513 -> 3256.00
16:25:47:513 -> 3254.00
16:25:47:513 -> 3225.00
16:25:47:513 -> 3226.00
16:25:47:513 -> 3246.00
16:25:47:513 -> 3232.00
16:25:47:513 -> 3191.00
16:25:47:513 -> 3164.00
16:25:47:513 -> 3181.00
16:25:47:513 -> 3207.00
16:25:47:513 -> 3235.00
16:25:47:513 -> 3220.00
16:25:47:513 -> 3268.00
16:25:47:513 -> 3249.00
16:25:47:513 -> 3270.00
16:25:47:513 -> 3199.00
16:25:47:513 -> 3206.00
16:25:47:513 -> 3249.00
16:25:47:513 -> 3235.00
16:25:47:513 -> 3267.00
16:25:47:513 -> 3187.00
16:25:47:513 -> 3239.00
16:25:47:513 -> 3209.00
16:25:47:513 -> 3209.00
16:25:47:513 -> 3176.00
16:25:47:513 -> 3217.00
16:25:47:513 -> 3210.00
16:25:47:513 -> 3235.00
16:25:47:513 -> 3242.00
16:25:47:513 -> 3254.00
16:25:47:513 -> 3255.00
16:25:47:513 -> 3245.00
16:25:47:513 -> 3299.00
16:25:47:513 -> 3271.00
16:25:47:513 -> 3267.00
16:25:47:513 -> 3259.00
16:25:47:513 -> 3212.00
16:25:47:513 -> 3217.00
16:25:47:513 -> 3221.00
16:25:47:513 -> 3202.00
16:25:47:513 -> 3191.00
16:25:47:513 -> 3222.00
16:25:47:513 -> 3218.00
16:25:47:513 -> 3213.00
16:25:47:513 -> 3229.00
16:25:47:513 -> 3242.00
16:25:47:513 -> 3210.00
16:25:47:513 -> 3211.00
16:25:47:513 -> 3224.00
16:25:47:513 -> 3219.00
16:25:47:513 -> 3265.00
16:25:47:513 -> 3245.00
16:25:47:513 -> 3247.00
16:25:47:513 -> 3251.00
16:25:47:513 -> 3222.00
16:25:47:513 -> 3207.00
16:25:47:513 -> 3209.00
16:25:47:537 -> 3193.00
16:25:47:537 -> 3207.00
16:25:47:537 -> 3179.00
16:25:47:537 -> 3215.00
16:25:47:537 -> 3204.00
16:25:47:537 -> 3300.00
16:25:47:537 -> 3231.00
16:25:47:537 -> 3208.00
16:25:47:537 -> 3223.00
16:25:47:537 -> 3218.00
16:25:47:537 -> 3251.00
16:25:47:537 -> 3248.00
16:25:47:537 -> 3278.00
16:25:47:537 -> 3256.00
16:25:47:537 -> 3231.00
16:25:47:537 -> 3227.00
16:25:47:537 -> 3243.00
16:25:47:537 -> 3186.00
16:25:47:537 -> 3202.00
16:25:47:537 -> 3208.00
16:25:47:537 -> 3233.00
16:25:47:537 -> 3194.00
16:25:47:617 -> 3210.00
16:25:47:617 -> 3244.00
16:25:47:617 -> 3231.00
16:25:47:617 -> 3249.00
16:25:47:617 -> 3237.00
16:25:47:617 -> 3251.00
16:25:47:617 -> 3257.00
16:25:47:617 -> 3251.00
16:25:47:617 -> 3229.00
16:25:47:617 -> 3229.00
16:25:47:617 -> 3189.00
16:25:47:617 -> 3166.00
16:25:47:617 -> 3184.00
16:25:47:617 -> 3217.00
16:25:47:617 -> 3234.00
16:25:47:617 -> 3258.00
16:25:47:617 -> 3226.00
16:25:47:617 -> 3229.00
16:25:47:617 -> 3233.00
16:25:47:617 -> 3246.00
16:25:47:617 -> 3254.00
16:25:47:617 -> 3292.00
16:25:47:617 -> 3257.00
16:25:47:617 -> 3239.00
16:25:47:617 -> 3241.00
16:25:47:617 -> 3192.00
16:25:47:617 -> 3239.00
16:25:47:643 -> 3230.00
16:25:47:643 -> 3196.00
16:25:47:643 -> 3185.00
16:25:47:643 -> 3231.00
16:25:47:643 -> 3248.00
16:25:47:643 -> 3259.00
16:25:47:643 -> 3263.00
16:25:47:643 -> 3225.00
16:25:47:643 -> 3187.00
16:25:47:643 -> 3215.00
16:25:47:643 -> 3287.00
16:25:47:643 -> 3312.00
16:25:47:643 -> 3282.00
16:25:47:643 -> 3259.00
16:25:47:643 -> 3268.00
16:25:47:643 -> 3249.00
16:25:47:643 -> 3238.00
16:25:47:643 -> 3220.00
16:25:47:643 -> 3240.00
16:25:47:643 -> 3215.00
16:25:47:643 -> 3225.00
16:25:47:643 -> 3224.00
16:25:47:643 -> 3237.00
16:25:47:643 -> 3246.00
16:25:47:643 -> 3233.00
16:25:47:643 -> 3256.00
16:25:47:643 -> 3210.00
16:25:47:643 -> 3259.00
16:25:47:643 -> 3207.00
16:25:47:643 -> 3300.00
16:25:47:643 -> 3255.00
16:25:47:643 -> 3239.00
16:25:47:643 -> 3250.00
16:25:47:643 -> 3253.00
16:25:47:643 -> 3204.00
16:25:47:643 -> 3185.00
16:25:47:643 -> 3153.00
16:25:47:643 -> 3188.00
16:25:47:643 -> 3207.00
16:25:47:643 -> 3263.00
16:25:47:643 -> 3250.00
16:25:47:643 -> 3252.00
16:25:47:643 -> 3198.00
16:25:47:643 -> 3196.00
16:25:47:643 -> 3255.00
16:25:47:643 -> 3272.00
16:25:47:643 -> 3271.00
16:25:47:643 -> 3288.00
16:25:47:643 -> 3253.00
16:25:47:643 -> 3232.00
16:25:47:643 -> 3200.00
16:25:47:643 -> 3190.00
16:25:47:643 -> 3242.00
16:25:47:643 -> 3215.00
16:25:47:643 -> 3237.00
16:25:47:643 -> 3230.00
16:25:47:643 -> 3209.00
16:25:47:643 -> 3204.00
16:25:47:666 -> 3243.00
16:25:47:666 -> 3239.00
16:25:47:666 -> 3297.00
16:25:47:666 -> 3286.00
16:25:47:666 -> 3265.00
16:25:47:666 -> 3261.00
16:25:47:666 -> 3277.00
16:25:47:666 -> 3264.00
16:25:47:666 -> 3242.00
16:25:47:666 -> 3243.00
16:25:47:666 -> 3224.00
16:25:47:666 -> 3263.00
16:25:47:666 -> 3233.00
16:25:47:666 -> 3201.00
16:25:47:666 -> 3217.00
16:25:47:666 -> 3206.00
16:25:47:666 -> 3246.00
16:25:47:666 -> 3268.00
16:25:47:666 -> 3270.00
16:25:47:666 -> 3237.00
16:25:47:666 -> 3267.00
16:25:47:666 -> 3283.00
16:25:47:666 -> 3290.00
16:25:47:686 -> 3254.00
16:25:47:686 -> 3274.00
16:25:47:686 -> 3248.00
16:25:47:686 -> 3209.00
16:25:47:686 -> 3193.00
16:25:47:686 -> 3201.00
16:25:47:686 -> 3242.00
16:25:47:686 -> 3209.00
16:25:47:686 -> 3221.00
16:25:47:686 -> 3213.00
16:25:47:686 -> 3250.00
16:25:47:686 -> 3241.00
16:25:47:686 -> 3219.00
16:25:47:686 -> 3239.00
16:25:47:686 -> 3272.00
16:25:47:686 -> 3273.00
16:25:47:697 -> 3220.00
16:25:47:697 -> 3257.00
16:25:47:697 -> 3223.00
16:25:47:697 -> 3218.00
16:25:47:697 -> 3222.00
16:25:47:697 -> 3178.00
16:25:47:697 -> 3167.00
16:25:47:697 -> 3190.00
16:25:47:697 -> 3202.00
16:25:47:697 -> 3229.00
16:25:47:719 -> 3235.00
16:25:47:719 -> 3186.00
16:25:47:719 -> 3201.00
16:25:47:719 -> 3203.00
16:25:47:719 -> 3258.00
16:25:47:719 -> 3258.00
16:25:47:719 -> 3260.00
16:25:47:719 -> 3284.00
16:25:47:719 -> 3288.00
16:25:47:719 -> 3264.00
16:25:47:719 -> 3241.00
16:25:47:719 -> 3288.00
16:25:47:719 -> 3275.00
16:25:47:719 -> 3239.00
16:25:47:719 -> 3242.00
16:25:47:719 -> 3247.00
16:25:47:719 -> 3276.00
16:25:47:719 -> 3243.00
16:25:47:725 -> 3234.00
16:25:47:725 -> 3269.00
16:25:47:725 -> 3215.00
16:25:47:725 -> 3297.00
16:25:47:725 -> 3264.00
16:25:47:760 -> 3258.00
16:25:47:760 -> 3256.00
16:25:47:760 -> 3243.00
16:25:47:760 -> 3224.00
16:25:47:760 -> 3223.00
16:25:47:760 -> 3225.00
16:25:47:760 -> 3213.00
16:25:47:760 -> 3182.00
16:25:47:760 -> 3186.00
16:25:47:760 -> 3282.00
16:25:47:760 -> 3287.00
16:25:47:760 -> 3214.00
16:25:47:760 -> 3255.00
16:25:47:760 -> 3297.00
16:25:47:760 -> 3364.00
16:25:47:760 -> 3234.00
16:25:47:760 -> 3292.00
16:25:47:760 -> 3278.00
16:25:47:760 -> 3260.00
16:25:47:760 -> 3230.00
16:25:47:760 -> 3232.00
16:25:47:765 -> 3232.00
16:25:47:765 -> 3223.00
16:25:47:765 -> 3218.00
16:25:47:765 -> 3149.00
16:25:47:765 -> 3220.00
16:25:47:765 -> 3227.00
16:25:47:765 -> 3218.00
16:25:47:765 -> 3222.00
16:25:47:765 -> 3234.00
16:25:47:765 -> 3293.00
16:25:47:765 -> 3295.00
16:25:47:765 -> 3271.00
16:25:47:765 -> 3263.00
16:25:47:766 -> 3260.00
16:25:47:772 -> 3345.00
16:25:47:772 -> 3252.00
16:25:47:772 -> 3236.00
16:25:47:772 -> 3236.00
16:25:47:772 -> 3189.00
16:25:47:781 -> 3201.00
16:25:47:781 -> 3252.00
16:25:47:781 -> 3209.00
16:25:47:781 -> 3228.00
16:25:47:781 -> 3224.00
16:25:47:781 -> 3286.00
16:25:47:781 -> 3279.00
16:25:47:781 -> 3303.00
16:25:47:791 -> 3326.00
16:25:47:791 -> 3283.00
16:25:47:791 -> 3243.00
16:25:47:791 -> 3259.00
16:25:47:791 -> 3218.00
16:25:47:791 -> 3170.00
16:25:47:791 -> 3172.00
16:25:47:797 -> 3158.00
16:25:47:797 -> 3216.00
16:25:47:797 -> 3234.00
16:25:47:797 -> 3165.00
16:25:47:797 -> 3187.00
16:25:47:800 -> 3209.00
16:25:47:800 -> 3189.00
16:25:47:800 -> 3281.00
16:25:47:802 -> 3275.00
16:25:47:802 -> 3256.00
16:25:47:805 -> 3299.00
16:25:47:805 -> 3227.00
16:25:47:806 -> 3177.00
16:25:47:807 -> 3109.00
16:25:47:808 -> 3212.00
16:25:47:809 -> 3240.00
16:25:47:810 -> 3204.00
16:25:47:811 -> 3255.00
16:25:47:812 -> 3219.00
16:25:47:814 -> 3213.00
16:25:47:815 -> 3197.00
16:25:47:816 -> 3263.00
16:25:47:817 -> 3302.00
16:25:47:818 -> 3289.00
16:25:47:819 -> 3311.00
16:25:47:821 -> 3346.00
16:25:47:822 -> 3318.00
16:25:47:823 -> 3312.00
16:25:47:826 -> 3278.00
16:25:47:826 -> 3269.00
16:25:47:829 -> 3331.00
16:25:47:829 -> 3312.00
16:25:47:831 -> 3297.00
16:25:47:831 -> 3274.00
16:25:47:832 -> 3262.00
16:25:47:834 -> 3250.00
16:25:47:834 -> 3250.00
16:25:47:835 -> 3295.00
16:25:47:836 -> 3259.00
16:25:47:837 -> 3244.00
16:25:47:839 -> 3251.00
16:25:47:840 -> 3264.00
16:25:47:842 -> 3300.00
16:25:47:844 -> 3239.00
16:25:47:844 -> 3214.00
16:25:47:846 -> 3135.00
16:25:47:846 -> 3286.00
16:25:47:849 -> 3277.00
16:25:47:849 -> 3276.00
16:25:47:851 -> 3366.00
16:25:47:851 -> 3366.00
16:25:47:853 -> 3295.00
16:25:47:858 -> 3355.00
16:25:47:858 -> 3279.00
16:25:47:858 -> 3161.00
16:25:47:858 -> 3124.00
16:25:47:860 -> 3167.00
16:25:47:860 -> 3140.00
16:25:47:861 -> 3140.00
16:25:47:861 -> 3204.00
16:25:47:862 -> 3231.00
16:25:47:864 -> 3235.00
16:25:47:866 -> 3212.00
16:25:47:872 -> 3240.00
16:25:47:872 -> 3203.00
16:25:47:872 -> 3179.00
16:25:47:872 -> 3318.00
16:25:47:872 -> 3278.00
16:25:47:873 -> 3234.00
16:25:47:885 -> 3293.00
16:25:47:885 -> 3295.00
16:25:47:885 -> 3215.00
16:25:47:885 -> 3168.00
16:25:47:885 -> 3190.00
16:25:47:885 -> 3177.00
16:25:47:885 -> 3173.00
16:25:47:885 -> 3109.00
16:25:47:885 -> 3043.00
16:25:47:885 -> 3027.00
16:25:47:885 -> 3133.00
16:25:47:887 -> 3253.00
16:25:47:888 -> 3379.00
16:25:47:889 -> 3325.00
16:25:47:896 -> 3300.00
16:25:47:898 -> 3235.00
16:25:47:898 -> 3196.00
16:25:47:898 -> 3252.00
16:25:47:898 -> 3264.00
16:25:47:898 -> 3353.00
16:25:47:898 -> 3326.00
16:25:47:898 -> 3390.00
16:25:47:899 -> 3317.00
16:25:47:900 -> 3353.00
16:25:47:902 -> 3229.00
16:25:47:903 -> 3293.00
16:25:47:904 -> 3257.00
16:25:47:905 -> 3294.00
16:25:47:911 -> 3282.00
16:25:47:911 -> 3317.00
16:25:47:911 -> 3266.00
16:25:47:911 -> 3298.00
16:25:47:925 -> 3302.00
16:25:47:925 -> 3252.00
16:25:47:925 -> 3229.00
16:25:47:925 -> 3304.00
16:25:47:925 -> 3325.00
16:25:47:925 -> 3300.00
16:25:47:925 -> 3191.00
16:25:47:925 -> 3194.00
16:25:47:925 -> 3165.00
16:25:47:925 -> 3150.00
16:25:47:925 -> 3249.00
16:25:47:925 -> 3244.00
16:25:47:939 -> 3207.00
16:25:47:939 -> 3275.00
16:25:47:939 -> 3261.00
16:25:47:939 -> 3334.00
16:25:47:939 -> 3228.00
16:25:47:939 -> 3268.00
16:25:47:939 -> 3256.00
16:25:47:939 -> 3206.00
16:25:47:939 -> 3153.00
16:25:47:939 -> 3161.00
16:25:47:939 -> 3138.00
16:25:47:939 -> 3259.00
16:25:47:945 -> 3130.00
16:25:47:945 -> 3139.00
16:25:47:945 -> 3168.00
16:25:47:945 -> 3293.00
16:25:47:955 -> 3127.00
16:25:47:955 -> 3203.00
16:25:47:955 -> 3267.00
16:25:47:955 -> 3362.00
16:25:47:955 -> 3349.00
16:25:47:955 -> 3318.00
16:25:47:955 -> 3152.00
16:25:47:955 -> 3106.00
16:25:47:955 -> 3129.00
16:25:47:957 -> 3147.00
16:25:47:957 -> 3175.00
16:25:47:958 -> 3208.00
16:25:47:959 -> 3266.00
16:25:47:960 -> 3141.00
16:25:47:961 -> 3229.00
16:25:47:962 -> 3489.00
16:25:47:964 -> 3349.00
16:25:47:965 -> 3402.00
16:25:47:966 -> 3379.00
16:25:47:967 -> 3306.00
16:25:47:968 -> 3376.00
16:25:47:969 -> 3309.00
16:25:47:971 -> 3193.00
16:25:47:972 -> 3168.00
16:25:47:973 -> 3177.00
16:25:47:974 -> 3072.00
16:25:47:975 -> 3166.00
16:25:47:977 -> 3266.00
16:25:47:978 -> 3241.00
16:25:47:979 -> 3272.00
16:25:47:980 -> 3149.00
16:25:47:981 -> 3283.00
16:25:47:983 -> 3188.00
16:25:47:984 -> 3234.00
16:25:47:985 -> 3304.00
16:25:47:986 -> 3271.00
16:25:47:987 -> 3268.00
16:25:48:002 -> 3425.00
16:25:48:002 -> 3242.00
16:25:48:002 -> 3210.00
16:25:48:002 -> 3246.00
16:25:48:004 -> 3119.00
16:25:48:004 -> 3200.00
16:25:48:004 -> 3197.00
16:25:48:004 -> 3248.00
16:25:48:004 -> 3225.00
16:25:48:004 -> 3271.00
16:25:48:004 -> 3268.00
16:25:48:004 -> 3212.00
16:25:48:004 -> 3163.00
16:25:48:004 -> 3042.00
16:25:48:005 -> 3097.00
16:25:48:007 -> 2964.00
16:25:48:008 -> 3086.00
16:25:48:009 -> 3140.00
16:25:48:010 -> 3135.00
16:25:48:011 -> 3245.00
16:25:48:012 -> 3310.00
16:25:48:014 -> 3277.00
16:25:48:015 -> 3407.00
16:25:48:016 -> 3340.00
16:25:48:017 -> 3324.00
16:25:48:018 -> 3150.00
16:25:48:019 -> 3107.00
16:25:48:021 -> 3059.00
16:25:48:022 -> 3218.00
16:25:48:023 -> 2915.00
16:25:48:024 -> 2932.00
16:25:48:026 -> 3038.00
16:25:48:027 -> 3287.00
16:25:48:028 -> 3384.00
16:25:48:029 -> 3373.00
16:25:48:030 -> 3309.00
16:25:48:031 -> 3282.00
16:25:48:033 -> 3064.00
16:25:48:034 -> 3054.00
16:25:48:035 -> 3268.00
16:25:48:036 -> 3218.00
16:25:48:037 -> 3194.00
16:25:48:039 -> 3317.00
16:25:48:040 -> 3336.00
16:25:48:041 -> 3369.00
16:25:48:042 -> 3375.00
16:25:48:043 -> 3292.00
16:25:48:044 -> 3227.00
16:25:48:046 -> 3243.00
16:25:48:047 -> 3209.00
16:25:48:048 -> 3158.00
16:25:48:049 -> 3236.00
16:25:48:050 -> 3195.00
16:25:48:052 -> 3272.00
16:25:48:053 -> 3241.00
16:25:48:054 -> 3106.00
16:25:48:055 -> 3052.00
16:25:48:056 -> 3249.00
16:25:48:058 -> 3525.00
16:25:48:059 -> 3226.00
16:25:48:060 -> 3257.00
16:25:48:061 -> 3284.00
16:25:48:081 -> 3279.00
16:25:48:081 -> 3320.00
16:25:48:081 -> 3200.00
16:25:48:081 -> 3210.00
16:25:48:081 -> 3204.00
16:25:48:081 -> 3184.00
16:25:48:081 -> 3095.00
16:25:48:081 -> 3140.00
16:25:48:081 -> 3262.00
16:25:48:081 -> 3222.00
16:25:48:081 -> 3121.00
16:25:48:087 -> 3084.00
16:25:48:087 -> 3181.00
16:25:48:087 -> 3087.00
16:25:48:087 -> 3085.00
16:25:48:087 -> 3092.00
16:25:48:087 -> 3154.00
16:25:48:087 -> 3382.00
16:25:48:087 -> 3370.00
16:25:48:097 -> 3326.00
16:25:48:097 -> 3278.00
16:25:48:097 -> 3183.00
16:25:48:097 -> 2966.00
16:25:48:097 -> 3032.00
16:25:48:097 -> 2929.00
16:25:48:097 -> 2800.00
16:25:48:097 -> 2853.00
16:25:48:097 -> 3076.00
16:25:48:097 -> 3209.00
16:25:48:104 -> 3259.00
16:25:48:104 -> 3334.00
16:25:48:104 -> 3284.00
16:25:48:104 -> 3153.00
16:25:48:104 -> 3060.00
16:25:48:104 -> 3068.00
16:25:48:104 -> 3155.00
16:25:48:105 -> 3504.00
16:25:48:106 -> 3405.00
16:25:48:108 -> 3104.00
16:25:48:109 -> 3078.00
16:25:48:110 -> 3150.00
16:25:48:111 -> 3130.00
16:25:48:114 -> 3176.00
16:25:48:114 -> 3245.00
16:25:48:115 -> 3278.00
16:25:48:157 -> 3246.00
16:25:48:157 -> 3170.00
16:25:48:157 -> 3121.00
16:25:48:157 -> 3234.00
16:25:48:157 -> 3234.00
16:25:48:177 -> 3059.00
16:25:48:177 -> 3078.00
16:25:48:177 -> 2944.00
16:25:48:177 -> 3120.00
16:25:48:177 -> 3585.00
16:25:48:177 -> 3527.00
16:25:48:177 -> 3337.00
16:25:48:177 -> 3325.00
16:25:48:177 -> 3146.00
16:25:48:177 -> 2985.00
16:25:48:177 -> 3304.00
16:25:48:177 -> 3307.00
16:25:48:177 -> 3327.00
16:25:48:177 -> 3278.00
16:25:48:177 -> 3251.00
16:25:48:177 -> 3122.00
16:25:48:177 -> 3104.00
16:25:48:177 -> 3228.00
16:25:48:177 -> 3256.00
16:25:48:177 -> 3233.00
16:25:48:177 -> 3139.00
16:25:48:177 -> 3062.00
16:25:48:177 -> 3111.00
16:25:48:177 -> 3081.00
16:25:48:177 -> 3214.00
16:25:48:177 -> 3023.00
16:25:48:177 -> 3069.00
16:25:48:177 -> 3208.00
16:25:48:177 -> 3205.00
16:25:48:177 -> 3224.00
16:25:48:177 -> 3231.00
16:25:48:177 -> 3200.00
16:25:48:177 -> 3151.00
16:25:48:177 -> 3292.00
16:25:48:177 -> 3419.00
16:25:48:177 -> 3174.00
16:25:48:177 -> 3095.00
16:25:48:178 -> 3513.00
16:25:48:178 -> 3161.00
16:25:48:178 -> 3094.00
16:25:48:178 -> 3141.00
16:25:48:178 -> 3031.00
16:25:48:178 -> 2871.00
16:25:48:178 -> 2864.00
16:25:48:178 -> 3049.00
16:25:48:178 -> 3001.00
16:25:48:178 -> 3029.00
16:25:48:178 -> 3372.00
16:25:48:180 -> 3419.00
16:25:48:181 -> 3134.00
16:25:48:182 -> 3164.00
16:25:48:183 -> 3217.00
16:25:48:184 -> 3072.00
16:25:48:185 -> 3108.00
16:25:48:186 -> 3123.00
16:25:48:187 -> 3128.00
16:25:48:189 -> 3183.00
16:25:48:190 -> 3064.00
16:25:48:192 -> 3154.00
16:25:48:194 -> 3253.00
16:25:48:195 -> 3285.00
16:25:48:195 -> 3373.00
16:25:48:196 -> 3279.00
16:25:48:197 -> 3283.00
16:25:48:198 -> 3170.00
16:25:48:199 -> 3126.00
16:25:48:200 -> 2932.00
16:25:48:202 -> 3299.00
16:25:48:203 -> 3352.00
16:25:48:204 -> 3143.00
16:25:48:205 -> 3132.00
16:25:48:206 -> 3430.00
16:25:48:209 -> 3077.00
16:25:48:209 -> 3193.00
16:25:48:210 -> 3310.00
16:25:48:211 -> 3306.00
16:25:48:212 -> 3273.00
16:25:48:214 -> 3164.00
16:25:48:215 -> 3096.00
16:25:48:216 -> 3085.00
16:25:48:217 -> 3114.00
16:25:48:218 -> 3287.00
16:25:48:219 -> 3184.00
16:25:48:221 -> 3172.00
16:25:48:222 -> 3204.00
16:25:48:223 -> 3219.00
16:25:48:224 -> 3283.00
16:25:48:226 -> 3288.00
16:25:48:230 -> 3004.00
16:25:48:230 -> 3114.00
16:25:48:230 -> 3151.00
16:25:48:230 -> 3146.00
16:25:48:231 -> 3174.00
16:25:48:233 -> 3210.00
16:25:48:235 -> 3100.00
16:25:48:235 -> 3116.00
16:25:48:241 -> 3231.00
16:25:48:241 -> 3339.00
16:25:48:241 -> 3153.00
16:25:48:241 -> 3042.00
16:25:48:250 -> 3101.00
16:25:48:250 -> 3279.00
16:25:48:250 -> 3174.00
16:25:48:250 -> 3023.00
16:25:48:250 -> 3227.00
16:25:48:250 -> 3306.00
16:25:48:250 -> 3247.00
16:25:48:250 -> 3295.00
16:25:48:254 -> 3315.00
16:25:48:254 -> 3257.00
16:25:48:255 -> 3109.00
16:25:48:255 -> 3038.00
16:25:48:256 -> 3103.00
16:25:48:256 -> 3108.00
16:25:48:258 -> 3148.00
16:25:48:259 -> 3267.00
16:25:48:260 -> 3126.00
16:25:48:261 -> 3088.00
16:25:48:262 -> 3023.00
16:25:48:264 -> 3001.00
16:25:48:273 -> 2996.00
16:25:48:273 -> 3087.00
16:25:48:273 -> 3185.00
16:25:48:273 -> 3367.00
16:25:48:273 -> 3295.00
16:25:48:273 -> 3204.00
16:25:48:273 -> 3108.00
16:25:48:273 -> 3108.00
16:25:48:274 -> 3184.00
16:25:48:275 -> 3120.00
16:25:48:277 -> 3130.00
16:25:48:278 -> 3149.00
16:25:48:279 -> 3038.00
16:25:48:280 -> 3357.00
16:25:48:281 -> 3347.00
16:25:48:283 -> 3241.00
16:25:48:284 -> 3294.00
16:25:48:285 -> 3318.00
16:25:48:286 -> 3185.00
16:25:48:287 -> 3210.00
16:25:48:289 -> 3083.00
16:25:48:290 -> 2990.00
16:25:48:291 -> 3126.00
16:25:48:292 -> 3155.00
16:25:48:293 -> 3057.00
16:25:48:294 -> 3244.00
16:25:48:296 -> 3331.00
16:25:48:297 -> 3266.00
16:25:48:298 -> 3162.00
16:25:48:299 -> 3219.00
16:25:48:301 -> 3191.00
16:25:48:302 -> 3229.00
16:25:48:303 -> 3330.00
16:25:48:304 -> 3264.00
16:25:48:305 -> 3209.00
16:25:48:306 -> 3303.00
16:25:48:308 -> 3163.00
16:25:48:309 -> 3174.00
16:25:48:310 -> 3322.00
16:25:48:311 -> 3286.00
16:25:48:312 -> 3209.00
16:25:48:313 -> 3122.00
16:25:48:315 -> 3112.00
16:25:48:316 -> 3114.00
16:25:48:317 -> 3185.00
16:25:48:321 -> 3141.00
16:25:48:321 -> 3024.00
16:25:48:321 -> 3231.00
16:25:48:323 -> 3393.00
16:25:48:323 -> 3201.00
16:25:48:332 -> 3011.00
16:25:48:332 -> 3072.00
16:25:48:332 -> 3135.00
16:25:48:332 -> 3283.00
16:25:48:332 -> 3137.00
16:25:48:332 -> 2930.00
16:25:48:332 -> 3080.00
16:25:48:334 -> 3287.00
16:25:48:334 -> 3267.00
16:25:48:335 -> 3281.00
16:25:48:395 -> 3087.00
16:25:48:395 -> 3313.00
16:25:48:395 -> 3225.00
16:25:48:395 -> 3068.00
16:25:48:395 -> 2887.00
16:25:48:395 -> 3136.00
16:25:48:395 -> 3071.00
16:25:48:395 -> 3114.00
16:25:48:395 -> 3172.00
16:25:48:395 -> 3346.00
16:25:48:395 -> 3355.00
16:25:48:395 -> 3217.00
16:25:48:395 -> 3199.00
16:25:48:395 -> 3215.00
16:25:48:395 -> 3204.00
16:25:48:395 -> 3198.00
16:25:48:395 -> 2970.00
16:25:48:395 -> 3104.00
16:25:48:395 -> 3110.00
16:25:48:395 -> 3253.00
16:25:48:395 -> 3321.00
16:25:48:395 -> 3207.00
16:25:48:395 -> 3203.00
16:25:48:395 -> 3158.00
16:25:48:395 -> 3285.00
16:25:48:395 -> 3358.00
16:25:48:395 -> 3122.00
16:25:48:395 -> 3307.00
16:25:48:395 -> 3524.00
16:25:48:395 -> 3063.00
16:25:48:395 -> 2977.00
16:25:48:395 -> 3192.00
16:25:48:395 -> 3297.00
16:25:48:395 -> 3473.00
16:25:48:395 -> 3081.00
16:25:48:395 -> 3093.00
16:25:48:395 -> 3251.00
16:25:48:395 -> 3210.00
16:25:48:395 -> 3244.00
16:25:48:395 -> 3171.00
16:25:48:395 -> 3221.00
16:25:48:395 -> 3333.00
16:25:48:395 -> 3282.00
16:25:48:395 -> 3209.00
16:25:48:395 -> 3210.00
16:25:48:395 -> 3137.00
16:25:48:395 -> 2995.00
16:25:48:395 -> 3030.00
16:25:48:395 -> 3253.00
16:25:48:395 -> 3274.00
16:25:48:440 -> 3282.00
16:25:48:440 -> 3316.00
16:25:48:440 -> 3197.00
16:25:48:440 -> 3062.00
16:25:48:440 -> 3068.00
16:25:48:440 -> 3166.00
16:25:48:440 -> 3165.00
16:25:48:440 -> 3180.00
16:25:48:440 -> 3028.00
16:25:48:440 -> 3066.00
16:25:48:440 -> 3216.00
16:25:48:440 -> 3300.00
16:25:48:440 -> 3286.00
16:25:48:440 -> 3250.00
16:25:48:440 -> 3092.00
16:25:48:440 -> 3096.00
16:25:48:440 -> 3266.00
16:25:48:440 -> 3209.00
16:25:48:440 -> 3322.00
16:25:48:440 -> 3194.00
16:25:48:440 -> 3167.00
16:25:48:440 -> 3212.00
16:25:48:440 -> 3170.00
16:25:48:440 -> 3190.00
16:25:48:440 -> 3118.00
16:25:48:440 -> 3127.00
16:25:48:440 -> 3169.00
16:25:48:440 -> 3085.00
16:25:48:440 -> 3185.00
16:25:48:440 -> 3198.00
16:25:48:440 -> 3161.00
16:25:48:440 -> 3055.00
16:25:48:440 -> 3126.00
16:25:48:440 -> 3235.00
16:25:48:440 -> 3149.00
16:25:48:456 -> 3320.00
16:25:48:456 -> 3120.00
16:25:48:456 -> 3127.00
16:25:48:456 -> 3147.00
16:25:48:456 -> 3517.00
16:25:48:456 -> 3262.00
16:25:48:456 -> 3240.00
16:25:48:456 -> 3183.00
16:25:48:456 -> 3208.00
16:25:48:456 -> 3172.00
16:25:48:456 -> 3254.00
16:25:48:456 -> 3334.00
16:25:48:456 -> 3324.00
16:25:48:456 -> 3228.00
16:25:48:456 -> 3289.00
16:25:48:456 -> 3113.00
16:25:48:460 -> 3216.00
16:25:48:460 -> 3223.00
16:25:48:460 -> 3352.00
16:25:48:460 -> 2987.00
16:25:48:461 -> 3039.00
16:25:48:462 -> 3242.00
16:25:48:463 -> 3304.00
16:25:48:465 -> 3273.00
16:25:48:466 -> 3218.00
16:25:48:467 -> 3277.00
16:25:48:468 -> 3280.00
16:25:48:469 -> 3157.00
16:25:48:471 -> 3239.00
16:25:48:472 -> 3259.00
16:25:48:473 -> 3224.00
16:25:48:474 -> 3176.00
16:25:48:475 -> 3217.00
16:25:48:480 -> 3241.00
16:25:48:480 -> 3160.00
16:25:48:480 -> 3186.00
16:25:48:480 -> 3232.00
16:25:48:481 -> 3314.00
16:25:48:483 -> 3349.00
16:25:48:484 -> 3289.00
16:25:48:485 -> 3140.00
16:25:48:486 -> 3051.00
16:25:48:487 -> 3279.00
16:25:48:488 -> 3077.00
16:25:48:490 -> 3166.00
16:25:48:491 -> 3120.00
16:25:48:492 -> 2967.00
16:25:48:509 -> 3000.00
16:25:48:509 -> 3016.00
16:25:48:509 -> 3515.00
16:25:48:509 -> 3267.00
16:25:48:509 -> 3013.00
16:25:48:509 -> 2941.00
16:25:48:509 -> 3157.00
16:25:48:509 -> 3332.00
16:25:48:509 -> 3303.00
16:25:48:509 -> 3311.00
16:25:48:509 -> 3218.00
16:25:48:509 -> 3346.00
16:25:48:509 -> 3266.00
16:25:48:509 -> 3245.00
16:25:48:512 -> 3166.00
16:25:48:514 -> 3106.00
16:25:48:514 -> 3153.00
16:25:48:514 -> 3317.00
16:25:48:515 -> 3218.00
16:25:48:520 -> 3116.00
16:25:48:529 -> 3226.00
16:25:48:529 -> 3138.00
16:25:48:529 -> 3119.00
16:25:48:529 -> 3174.00
16:25:48:542 -> 3145.00
16:25:48:542 -> 3092.00
16:25:48:542 -> 3167.00
16:25:48:542 -> 3348.00
16:25:48:542 -> 3360.00
16:25:48:542 -> 3222.00
16:25:48:542 -> 2949.00
16:25:48:542 -> 2894.00
16:25:48:542 -> 3123.00
16:25:48:542 -> 3532.00
16:25:48:542 -> 2959.00
16:25:48:542 -> 3071.00
16:25:48:542 -> 3293.00
16:25:48:550 -> 3518.00
16:25:48:550 -> 3434.00
16:25:48:550 -> 3254.00
16:25:48:550 -> 3124.00
16:25:48:550 -> 3139.00
16:25:48:550 -> 3291.00
16:25:48:550 -> 3297.00
16:25:48:550 -> 3384.00
16:25:48:550 -> 3201.00
16:25:48:550 -> 3196.00
16:25:48:550 -> 3266.00
16:25:48:558 -> 3252.00
16:25:48:558 -> 3240.00
16:25:48:558 -> 3247.00
16:25:48:558 -> 3297.00
16:25:48:558 -> 3274.00
16:25:48:558 -> 3200.00
16:25:48:558 -> 3205.00
16:25:48:567 -> 3349.00
16:25:48:567 -> 3205.00
16:25:48:567 -> 3260.00
16:25:48:567 -> 3251.00
16:25:48:567 -> 3234.00
16:25:48:567 -> 3218.00
16:25:48:567 -> 3240.00
16:25:48:569 -> 3244.00
16:25:48:569 -> 3174.00
16:25:48:570 -> 3038.00
16:25:48:571 -> 2972.00
16:25:48:572 -> 3140.00
16:25:48:573 -> 3257.00
16:25:48:574 -> 3089.00
16:25:48:575 -> 3212.00
16:25:48:577 -> 3126.00
16:25:48:582 -> 3229.00
16:25:48:582 -> 3349.00
16:25:48:582 -> 3272.00
16:25:48:585 -> 3243.00
16:25:48:585 -> 3354.00
16:25:48:585 -> 3329.00
16:25:48:585 -> 3311.00
16:25:48:586 -> 3263.00
16:25:48:587 -> 3217.00
16:25:48:588 -> 3214.00
16:25:48:590 -> 3242.00
16:25:48:591 -> 3284.00
16:25:48:592 -> 3146.00
16:25:48:593 -> 3135.00
16:25:48:594 -> 3125.00
16:25:48:596 -> 3113.00
16:25:48:597 -> 3280.00
16:25:48:598 -> 3127.00
16:25:48:599 -> 3146.00
16:25:48:600 -> 3189.00
16:25:48:602 -> 3117.00
16:25:48:603 -> 3281.00
16:25:48:618 -> 3303.00
16:25:48:618 -> 3117.00
16:25:48:618 -> 3094.00
16:25:48:618 -> 3079.00
16:25:48:618 -> 3078.00
16:25:48:618 -> 3029.00
16:25:48:618 -> 3143.00
16:25:48:618 -> 3294.00
16:25:48:618 -> 3401.00
16:25:48:618 -> 3301.00
16:25:48:618 -> 3207.00
16:25:48:622 -> 3156.00
16:25:48:622 -> 3220.00
16:25:48:622 -> 3277.00
16:25:48:622 -> 3233.00
16:25:48:622 -> 3289.00
16:25:48:623 -> 3264.00
16:25:48:628 -> 3265.00
16:25:48:628 -> 3111.00
16:25:48:628 -> 2962.00
16:25:48:650 -> 3091.00
16:25:48:650 -> 3236.00
16:25:48:650 -> 3279.00
16:25:48:650 -> 3096.00
16:25:48:650 -> 3183.00
16:25:48:650 -> 3315.00
16:25:48:650 -> 3350.00
16:25:48:650 -> 3351.00
16:25:48:650 -> 3409.00
16:25:48:650 -> 3351.00
16:25:48:650 -> 3366.00
16:25:48:650 -> 3350.00
16:25:48:650 -> 3303.00
16:25:48:650 -> 3297.00
16:25:48:650 -> 3226.00
16:25:48:650 -> 3226.00
16:25:48:650 -> 3189.00
16:25:48:650 -> 3275.00
16:25:48:650 -> 3312.00
16:25:48:696 -> 3177.00
16:25:48:696 -> 3119.00
16:25:48:696 -> 3302.00
16:25:48:696 -> 3237.00
16:25:48:696 -> 3221.00
16:25:48:696 -> 3309.00
16:25:48:696 -> 3181.00
16:25:48:714 -> 3202.00
16:25:48:714 -> 3314.00
16:25:48:714 -> 3221.00
16:25:48:714 -> 3173.00
16:25:48:714 -> 3228.00
16:25:48:714 -> 3371.00
16:25:48:714 -> 3271.00
16:25:48:714 -> 3169.00
16:25:48:714 -> 3219.00
16:25:48:714 -> 3233.00
16:25:48:714 -> 3230.00
16:25:48:714 -> 3185.00
16:25:48:714 -> 3067.00
16:25:48:714 -> 3109.00
16:25:48:714 -> 3386.00
16:25:48:714 -> 3135.00
16:25:48:714 -> 3125.00
16:25:48:714 -> 3193.00
16:25:48:714 -> 3133.00
16:25:48:714 -> 3198.00
16:25:48:714 -> 3221.00
16:25:48:714 -> 3210.00
16:25:48:714 -> 3201.00
16:25:48:714 -> 3351.00
16:25:48:714 -> 3289.00
16:25:48:714 -> 3182.00
16:25:48:714 -> 3143.00
16:25:48:714 -> 3104.00
16:25:48:714 -> 3040.00
16:25:48:714 -> 3239.00
16:25:48:714 -> 3000.00
16:25:48:714 -> 3013.00
16:25:48:714 -> 3159.00
16:25:48:714 -> 3189.00
16:25:48:714 -> 3162.00
16:25:48:714 -> 3105.00
16:25:48:714 -> 3251.00
16:25:48:714 -> 3313.00
16:25:48:714 -> 3200.00
16:25:48:714 -> 3122.00
16:25:48:714 -> 3192.00
16:25:48:714 -> 3307.00
16:25:48:714 -> 3207.00
16:25:48:714 -> 3260.00
16:25:48:714 -> 3372.00
16:25:48:714 -> 3398.00
16:25:48:714 -> 3283.00
16:25:48:726 -> 3393.00
16:25:48:726 -> 3343.00
16:25:48:726 -> 3300.00
16:25:48:726 -> 3333.00
16:25:48:726 -> 3290.00
16:25:48:726 -> 3221.00
16:25:48:726 -> 3226.00
16:25:48:726 -> 3322.00
16:25:48:726 -> 3353.00
16:25:48:726 -> 3464.00
16:25:48:728 -> 3303.00
16:25:48:728 -> 3271.00
16:25:48:729 -> 3178.00
16:25:48:730 -> 3240.00
16:25:48:731 -> 3310.00
16:25:48:732 -> 3323.00
16:25:48:734 -> 3264.00
16:25:48:735 -> 3310.00
16:25:48:736 -> 3275.00
16:25:48:737 -> 3243.00
16:25:48:738 -> 3235.00
16:25:48:740 -> 3253.00
16:25:48:741 -> 3112.00
16:25:48:742 -> 3085.00
16:25:48:743 -> 3149.00
16:25:48:744 -> 3241.00
16:25:48:746 -> 3202.00
16:25:48:747 -> 3096.00
16:25:48:748 -> 3255.00
16:25:48:749 -> 3210.00
16:25:48:750 -> 3184.00
16:25:48:752 -> 3107.00
16:25:48:753 -> 3084.00
16:25:48:754 -> 3099.00
16:25:48:755 -> 3187.00
16:25:48:756 -> 3156.00
16:25:48:757 -> 3171.00
16:25:48:759 -> 3217.00
16:25:48:760 -> 3400.00
16:25:48:761 -> 3585.00
16:25:48:768 -> 3570.00
16:25:48:768 -> 3313.00
16:25:48:768 -> 3267.00
16:25:48:768 -> 3290.00
16:25:48:768 -> 3184.00
16:25:48:769 -> 3153.00
16:25:48:770 -> 3058.00
16:25:48:771 -> 2964.00
16:25:48:772 -> 3026.00
16:25:48:774 -> 3066.00
16:25:48:774 -> 2877.00
16:25:48:782 -> 3023.00
16:25:48:782 -> 3126.00
16:25:48:782 -> 3088.00
16:25:48:782 -> 3025.00
16:25:48:782 -> 2946.00
16:25:48:786 -> 3138.00
16:25:48:786 -> 3379.00
16:25:48:786 -> 3398.00
16:25:48:786 -> 3439.00
16:25:48:792 -> 3588.00
16:25:48:792 -> 3391.00
16:25:48:792 -> 3358.00
16:25:48:792 -> 3524.00
16:25:48:792 -> 3336.00
16:25:48:792 -> 3248.00
16:25:48:794 -> 3256.00
16:25:48:795 -> 3279.00
16:25:48:801 -> 3223.00
16:25:48:801 -> 3193.00
16:25:48:801 -> 3293.00
16:25:48:801 -> 3317.00
16:25:48:801 -> 3327.00
16:25:48:802 -> 3276.00
16:25:48:803 -> 3259.00
16:25:48:804 -> 3387.00
16:25:48:805 -> 3282.00
16:25:48:806 -> 3203.00
16:25:48:807 -> 3381.00
16:25:48:810 -> 3175.00
16:25:48:810 -> 3223.00
16:25:48:813 -> 3015.00
16:25:48:816 -> 3263.00
16:25:48:816 -> 3368.00
16:25:48:816 -> 3247.00
16:25:48:816 -> 3161.00
16:25:48:817 -> 3185.00
16:25:48:820 -> 3110.00
16:25:48:820 -> 3057.00
16:25:48:821 -> 3069.00
16:25:48:822 -> 3159.00
16:25:48:823 -> 3172.00
16:25:48:825 -> 3215.00
16:25:48:827 -> 3113.00
16:25:48:827 -> 3402.00
16:25:48:830 -> 3541.00
16:25:48:830 -> 3436.00
16:25:48:831 -> 3290.00
16:25:48:831 -> 3243.00
16:25:48:832 -> 3230.00
16:25:48:834 -> 3208.00
16:25:48:835 -> 3084.00
16:25:48:836 -> 3063.00
16:25:48:837 -> 3171.00
16:25:48:838 -> 3036.00
16:25:48:840 -> 2994.00
16:25:48:843 -> 3020.00
16:25:48:843 -> 3201.00
16:25:48:843 -> 3357.00
16:25:48:848 -> 3471.00
16:25:48:848 -> 3478.00
16:25:48:848 -> 3363.00
16:25:48:848 -> 3167.00
16:25:48:855 -> 3067.00
16:25:48:855 -> 3149.00
16:25:48:855 -> 3326.00
16:25:48:855 -> 3344.00
16:25:48:855 -> 3398.00
16:25:48:855 -> 3432.00
16:25:48:857 -> 3296.00
16:25:48:866 -> 3207.00
16:25:48:866 -> 3028.00
16:25:48:866 -> 2981.00
16:25:48:866 -> 3154.00
16:25:48:866 -> 3189.00
16:25:48:866 -> 3348.00
16:25:48:866 -> 3360.00
16:25:48:872 -> 3292.00
16:25:48:872 -> 3170.00
16:25:48:872 -> 3087.00
16:25:48:872 -> 3121.00
16:25:48:872 -> 3143.00
16:25:48:872 -> 2981.00
16:25:48:879 -> 3172.00
16:25:48:879 -> 3251.00
16:25:48:882 -> 3210.00
16:25:48:882 -> 3080.00
16:25:48:882 -> 3289.00
16:25:48:882 -> 3390.00
16:25:48:882 -> 3447.00
16:25:48:882 -> 3441.00
16:25:48:883 -> 3542.00
16:25:48:884 -> 3440.00
16:25:48:885 -> 3329.00
16:25:48:886 -> 3349.00
16:25:48:887 -> 3323.00
16:25:48:888 -> 3155.00
16:25:48:891 -> 3265.00
16:25:48:893 -> 3285.00
16:25:48:893 -> 3367.00
16:25:48:904 -> 3296.00
16:25:48:904 -> 3163.00
16:25:48:904 -> 3173.00
16:25:48:904 -> 3058.00
16:25:48:904 -> 3019.00
16:25:48:904 -> 3105.00
16:25:48:904 -> 3186.00
16:25:48:904 -> 3300.00
16:25:48:904 -> 3318.00
16:25:48:906 -> 3500.00
16:25:48:906 -> 3414.00
16:25:48:906 -> 3283.00
16:25:48:908 -> 3393.00
16:25:48:909 -> 3325.00
16:25:48:910 -> 3383.00
16:25:48:911 -> 3371.00
16:25:48:912 -> 3411.00
16:25:48:913 -> 3384.00
16:25:48:915 -> 3290.00
16:25:48:916 -> 3345.00
16:25:48:917 -> 3334.00
16:25:48:918 -> 3125.00
16:25:48:919 -> 3166.00
16:25:48:921 -> 3257.00
16:25:48:922 -> 3228.00
16:25:48:931 -> 3352.00
16:25:48:931 -> 3454.00
16:25:48:931 -> 3005.00
16:25:48:931 -> 3201.00
16:25:48:931 -> 3164.00
16:25:48:931 -> 3200.00
16:25:48:931 -> 2844.00
16:25:48:935 -> 2969.00
16:25:48:935 -> 3496.00
16:25:48:935 -> 3556.00
16:25:48:936 -> 3319.00
16:25:48:937 -> 3272.00
16:25:48:937 -> 3322.00
16:25:48:938 -> 3370.00
16:25:48:940 -> 3390.00
16:25:48:941 -> 3254.00
16:25:48:942 -> 3283.00
16:25:48:943 -> 3193.00
16:25:48:944 -> 3219.00
16:25:48:946 -> 3216.00
16:25:48:947 -> 3183.00
16:25:48:948 -> 3165.00
16:25:48:949 -> 3319.00
16:25:48:950 -> 3224.00
16:25:48:952 -> 3182.00
16:25:48:953 -> 3386.00
16:25:48:954 -> 3386.00
16:25:48:955 -> 3296.00
16:25:48:956 -> 3124.00
16:25:48:957 -> 3203.00
16:25:48:959 -> 3161.00
16:25:48:960 -> 3026.00
16:25:48:961 -> 2983.00
16:25:48:962 -> 3284.00
16:25:48:963 -> 3408.00
16:25:48:965 -> 3528.00
16:25:48:969 -> 3467.00
16:25:48:969 -> 3369.00
16:25:48:969 -> 3284.00
16:25:48:973 -> 3289.00
16:25:48:973 -> 3379.00
16:25:48:973 -> 3254.00
16:25:48:973 -> 3248.00
16:25:48:975 -> 3296.00
16:25:48:976 -> 3341.00
16:25:48:976 -> 3259.00
16:25:48:978 -> 3183.00
16:25:48:979 -> 3120.00
16:25:48:980 -> 3154.00
16:25:48:982 -> 3177.00
16:25:48:989 -> 3160.00
16:25:48:989 -> 3191.00
16:25:48:989 -> 3395.00
16:25:48:989 -> 3678.00
16:25:48:989 -> 3355.00
16:25:48:989 -> 3322.00
16:25:48:999 -> 3388.00
16:25:48:999 -> 3364.00
16:25:48:999 -> 3306.00
16:25:48:999 -> 3213.00
16:25:48:999 -> 3146.00
16:25:48:999 -> 3056.00
16:25:48:999 -> 3117.00
16:25:48:999 -> 3458.00
16:25:48:999 -> 3359.00
16:25:49:009 -> 3421.00
16:25:49:009 -> 3317.00
16:25:49:009 -> 3448.00
16:25:49:009 -> 3534.00
16:25:49:009 -> 3444.00
16:25:49:009 -> 3357.00
16:25:49:009 -> 3264.00
16:25:49:021 -> 3301.00
16:25:49:021 -> 3175.00
16:25:49:021 -> 3136.00
16:25:49:021 -> 3297.00
16:25:49:021 -> 3397.00
16:25:49:021 -> 3255.00
16:25:49:021 -> 3208.00
16:25:49:021 -> 3335.00
16:25:49:021 -> 3102.00
16:25:49:021 -> 3087.00
16:25:49:023 -> 3169.00
16:25:49:023 -> 3200.00
16:25:49:023 -> 3345.00
16:25:49:024 -> 3298.00
16:25:49:034 -> 3231.00
16:25:49:034 -> 3154.00
16:25:49:034 -> 3416.00
16:25:49:034 -> 3585.00
16:25:49:034 -> 3397.00
16:25:49:034 -> 3236.00
16:25:49:034 -> 3274.00
16:25:49:034 -> 3197.00
16:25:49:035 -> 3172.00
16:25:49:036 -> 3251.00
16:25:49:037 -> 3076.00
16:25:49:038 -> 2975.00
16:25:49:040 -> 3398.00
16:25:49:041 -> 3571.00
16:25:49:042 -> 3233.00
16:25:49:043 -> 3206.00
16:25:49:044 -> 3515.00
16:25:49:048 -> 3373.00
16:25:49:048 -> 3251.00
16:25:49:049 -> 3078.00
16:25:49:050 -> 3034.00
16:25:49:051 -> 3139.00
16:25:49:051 -> 3287.00
16:25:49:060 -> 3383.00
16:25:49:060 -> 3442.00
16:25:49:060 -> 3369.00
16:25:49:060 -> 3338.00
16:25:49:060 -> 3306.00
16:25:49:060 -> 3156.00
16:25:49:068 -> 3149.00
16:25:49:068 -> 3431.00
16:25:49:068 -> 3418.00
16:25:49:068 -> 3288.00
16:25:49:068 -> 3372.00
16:25:49:068 -> 3492.00
16:25:49:068 -> 3416.00
16:25:49:072 -> 3344.00
16:25:49:072 -> 3159.00
16:25:49:072 -> 3125.00
16:25:49:083 -> 3104.00
16:25:49:083 -> 3280.00
16:25:49:083 -> 3482.00
16:25:49:083 -> 3425.00
16:25:49:083 -> 3303.00
16:25:49:083 -> 3416.00
16:25:49:083 -> 3366.00
16:25:49:083 -> 3268.00
16:25:49:083 -> 3253.00
16:25:49:083 -> 3183.00
16:25:49:133 -> 3126.00
16:25:49:133 -> 2997.00
16:25:49:133 -> 2976.00
16:25:49:133 -> 3099.00
16:25:49:133 -> 3187.00
16:25:49:133 -> 2936.00
16:25:49:133 -> 3253.00
16:25:49:133 -> 3526.00
16:25:49:133 -> 3510.00
16:25:49:133 -> 3116.00
16:25:49:133 -> 3072.00
16:25:49:133 -> 3233.00
16:25:49:133 -> 3586.00
16:25:49:133 -> 3428.00
16:25:49:133 -> 3313.00
16:25:49:133 -> 3515.00
16:25:49:133 -> 3538.00
16:25:49:133 -> 3365.00
16:25:49:133 -> 3344.00
16:25:49:133 -> 3300.00
16:25:49:133 -> 3260.00
16:25:49:133 -> 3199.00
16:25:49:133 -> 3203.00
16:25:49:133 -> 3190.00
16:25:49:133 -> 3213.00
16:25:49:133 -> 3179.00
16:25:49:133 -> 3196.00
16:25:49:133 -> 3217.00
16:25:49:133 -> 3228.00
16:25:49:133 -> 3450.00
16:25:49:133 -> 3423.00
16:25:49:133 -> 3324.00
16:25:49:133 -> 3253.00
16:25:49:133 -> 3370.00
16:25:49:133 -> 3293.00
16:25:49:133 -> 3311.00
16:25:49:133 -> 3345.00
16:25:49:133 -> 3379.00
16:25:49:133 -> 3404.00
16:25:49:133 -> 3323.00
16:25:49:133 -> 3094.00
16:25:49:133 -> 3241.00
16:25:49:151 -> 3195.00
16:25:49:151 -> 2970.00
16:25:49:151 -> 3223.00
16:25:49:151 -> 3204.00
16:25:49:151 -> 3045.00
16:25:49:151 -> 3023.00
16:25:49:151 -> 3293.00
16:25:49:151 -> 3243.00
16:25:49:151 -> 3075.00
16:25:49:151 -> 3246.00
16:25:49:151 -> 3569.00
16:25:49:151 -> 3661.00
16:25:49:151 -> 3519.00
16:25:49:151 -> 3470.00
16:25:49:151 -> 3162.00
16:25:49:176 -> 3226.00
16:25:49:176 -> 3409.00
16:25:49:176 -> 3509.00
16:25:49:176 -> 3350.00
16:25:49:176 -> 3324.00
16:25:49:176 -> 3316.00
16:25:49:176 -> 3247.00
16:25:49:176 -> 3175.00
16:25:49:176 -> 3332.00
16:25:49:176 -> 3381.00
16:25:49:176 -> 3366.00
16:25:49:176 -> 3371.00
16:25:49:176 -> 3253.00
16:25:49:176 -> 3273.00
16:25:49:176 -> 3249.00
16:25:49:176 -> 3254.00
16:25:49:176 -> 3254.00
16:25:49:176 -> 3320.00
16:25:49:176 -> 3324.00
16:25:49:176 -> 3190.00
16:25:49:176 -> 3237.00
16:25:49:245 -> 3319.00
16:25:49:245 -> 3411.00
16:25:49:245 -> 3410.00
16:25:49:245 -> 3396.00
16:25:49:245 -> 3347.00
16:25:49:245 -> 3305.00
16:25:49:245 -> 3277.00
16:25:49:245 -> 3266.00
16:25:49:245 -> 3250.00
16:25:49:245 -> 3211.00
16:25:49:245 -> 3139.00
16:25:49:245 -> 3170.00
16:25:49:245 -> 3206.00
16:25:49:245 -> 3316.00
16:25:49:245 -> 3397.00
16:25:49:245 -> 3332.00
16:25:49:245 -> 3255.00
16:25:49:245 -> 3397.00
16:25:49:245 -> 3273.00
16:25:49:245 -> 3273.00
16:25:49:245 -> 3250.00
16:25:49:245 -> 3245.00
16:25:49:328 -> 3186.00
16:25:49:328 -> 3087.00
16:25:49:328 -> 3105.00
16:25:49:328 -> 3114.00
16:25:49:328 -> 3188.00
16:25:49:328 -> 3443.00
16:25:49:328 -> 3531.00
16:25:49:328 -> 3547.00
16:25:49:328 -> 3389.00
16:25:49:328 -> 3320.00
16:25:49:328 -> 3320.00
16:25:49:328 -> 3411.00
16:25:49:328 -> 3403.00
16:25:49:328 -> 3335.00
16:25:49:328 -> 3281.00
16:25:49:328 -> 3299.00
16:25:49:328 -> 3374.00
16:25:49:328 -> 3372.00
16:25:49:328 -> 3382.00
16:25:49:328 -> 3367.00
16:25:49:328 -> 3357.00
16:25:49:328 -> 3378.00
16:25:49:328 -> 3293.00
16:25:49:328 -> 3270.00
16:25:49:328 -> 3276.00
16:25:49:328 -> 3279.00
16:25:49:328 -> 3320.00
16:25:49:328 -> 3263.00
16:25:49:328 -> 3282.00
16:25:49:328 -> 3305.00
16:25:49:328 -> 3269.00
16:25:49:328 -> 3267.00
16:25:49:328 -> 3305.00
16:25:49:328 -> 3339.00
16:25:49:328 -> 3345.00
16:25:49:328 -> 3308.00
16:25:49:328 -> 3286.00
16:25:49:328 -> 3293.00
16:25:49:328 -> 3301.00
16:25:49:328 -> 3274.00
16:25:49:328 -> 3275.00
16:25:49:328 -> 3257.00
16:25:49:328 -> 3267.00
16:25:49:328 -> 3264.00
16:25:49:328 -> 3263.00
16:25:49:328 -> 3287.00
16:25:49:328 -> 3303.00
16:25:49:328 -> 3335.00
16:25:49:328 -> 3357.00
16:25:49:328 -> 3324.00
16:25:49:341 -> 3359.00
16:25:49:341 -> 3386.00
16:25:49:341 -> 3357.00
16:25:49:341 -> 3332.00
16:25:49:341 -> 3321.00
16:25:49:341 -> 3340.00
16:25:49:341 -> 3331.00
16:25:49:341 -> 3322.00
16:25:49:341 -> 3275.00
16:25:49:341 -> 3299.00
16:25:49:341 -> 3289.00
16:25:49:341 -> 3299.00
16:25:49:341 -> 3296.00
16:25:49:341 -> 3320.00
16:25:49:341 -> 3302.00
16:25:49:341 -> 3325.00
16:25:49:341 -> 3305.00
16:25:49:341 -> 3372.00
16:25:49:341 -> 3344.00
16:25:49:341 -> 3361.00
16:25:49:341 -> 3337.00
16:25:49:341 -> 3299.00
16:25:49:341 -> 3310.00
16:25:49:341 -> 3314.00
16:25:49:341 -> 3293.00
16:25:49:341 -> 3310.00
16:25:49:341 -> 3291.00
16:25:49:341 -> 3313.00
16:25:49:341 -> 3307.00
16:25:49:341 -> 3309.00
16:25:49:341 -> 3343.00
16:25:49:341 -> 3349.00
16:25:49:341 -> 3325.00
16:25:49:341 -> 3361.00
16:25:49:341 -> 3361.00
16:25:49:341 -> 3333.00
16:25:49:341 -> 3336.00
16:25:49:341 -> 3309.00
16:25:49:341 -> 3323.00
16:25:49:341 -> 3326.00
16:25:49:341 -> 3317.00
16:25:49:341 -> 3278.00
16:25:49:341 -> 3255.00
16:25:49:341 -> 3272.00
16:25:49:341 -> 3293.00
16:25:49:341 -> 3271.00
16:25:49:341 -> 3311.00
16:25:49:341 -> 3331.00
16:25:49:341 -> 3354.00
16:25:49:341 -> 3330.00
16:25:49:341 -> 3348.00
16:25:49:341 -> 3303.00
16:25:49:341 -> 3347.00
16:25:49:341 -> 3353.00
16:25:49:341 -> 3348.00
16:25:49:341 -> 3327.00
16:25:49:341 -> 3297.00
16:25:49:341 -> 3287.00
16:25:49:341 -> 3255.00
16:25:49:341 -> 3272.00
16:25:49:341 -> 3308.00
16:25:49:341 -> 3279.00
16:25:49:341 -> 3294.00
16:25:49:341 -> 3306.00
16:25:49:341 -> 3317.00
16:25:49:341 -> 3312.00
16:25:49:345 -> 3344.00
16:25:49:345 -> 3394.00
16:25:49:345 -> 3393.00
16:25:49:345 -> 3313.00
16:25:49:347 -> 3344.00
16:25:49:347 -> 3324.00
16:25:49:348 -> 3290.00
16:25:49:349 -> 3320.00
16:25:49:350 -> 3306.00
16:25:49:351 -> 3275.00
16:25:49:353 -> 3287.00
16:25:49:354 -> 3336.00
16:25:49:355 -> 3326.00
16:25:49:356 -> 3337.00
16:25:49:357 -> 3379.00
16:25:49:359 -> 3332.00
16:25:49:360 -> 3350.00
16:25:49:361 -> 3348.00
16:25:49:363 -> 3360.00
16:25:49:364 -> 3367.00
16:25:49:365 -> 3348.00
16:25:49:366 -> 3339.00
16:25:49:367 -> 3348.00
16:25:49:368 -> 3326.00
16:25:49:369 -> 3324.00
16:25:49:370 -> 3324.00
16:25:49:372 -> 3284.00
16:25:49:373 -> 3277.00
16:25:49:374 -> 3301.00
16:25:49:375 -> 3298.00
16:25:49:376 -> 3310.00
16:25:49:378 -> 3297.00
16:25:49:380 -> 3315.00
16:25:49:380 -> 3346.00
16:25:49:381 -> 3317.00
16:25:49:383 -> 3313.00
16:25:49:384 -> 3324.00
16:25:49:385 -> 3334.00
16:25:49:386 -> 3337.00
16:25:49:387 -> 3300.00
16:25:49:388 -> 3344.00
16:25:49:390 -> 3308.00
16:25:49:391 -> 3293.00
16:25:49:392 -> 3260.00
16:25:49:393 -> 3260.00
16:25:49:394 -> 3296.00
16:25:49:396 -> 3286.00
16:25:49:398 -> 3324.00
16:25:49:398 -> 3345.00
16:25:49:399 -> 3329.00
16:25:49:401 -> 3303.00
16:25:49:403 -> 3343.00
16:25:49:403 -> 3325.00
16:25:49:404 -> 3366.00
16:25:49:405 -> 3360.00
16:25:49:407 -> 3327.00
16:25:49:411 -> 3336.00
16:25:49:411 -> 3338.00
16:25:49:411 -> 3296.00
16:25:49:411 -> 3280.00
16:25:49:414 -> 3273.00
16:25:49:414 -> 3276.00
16:25:49:415 -> 3327.00
16:25:49:416 -> 3307.00
16:25:49:417 -> 3327.00
16:25:49:418 -> 3306.00
16:25:49:419 -> 3345.00
16:25:49:420 -> 3314.00
16:25:49:422 -> 3346.00
16:25:49:423 -> 3368.00
16:25:49:426 -> 3365.00
16:25:49:426 -> 3327.00
16:25:49:427 -> 3359.00
16:25:49:428 -> 3353.00
16:25:49:430 -> 3338.00
16:25:49:433 -> 3318.00
16:25:49:433 -> 3283.00
16:25:49:433 -> 3282.00
16:25:49:437 -> 3288.00
16:25:49:437 -> 3338.00
16:25:49:437 -> 3278.00
16:25:49:438 -> 3312.00
16:25:49:439 -> 3353.00
16:25:49:440 -> 3343.00
16:25:49:441 -> 3346.00
16:25:49:442 -> 3331.00
16:25:49:443 -> 3303.00
16:25:49:444 -> 3343.00
16:25:49:446 -> 3364.00
16:25:49:447 -> 3365.00
16:25:49:448 -> 3370.00
16:25:49:449 -> 3351.00
16:25:49:450 -> 3356.00
16:25:49:451 -> 3345.00
16:25:49:453 -> 3373.00
16:25:49:454 -> 3360.00
16:25:49:455 -> 3335.00
16:25:49:456 -> 3334.00
16:25:49:457 -> 3338.00
16:25:49:459 -> 3353.00
16:25:49:460 -> 3317.00
16:25:49:461 -> 3334.00
16:25:49:462 -> 3379.00
16:25:49:463 -> 3360.00
16:25:49:465 -> 3373.00
16:25:49:466 -> 3359.00
16:25:49:467 -> 3348.00
16:25:49:468 -> 3323.00
16:25:49:469 -> 3292.00
16:25:49:470 -> 3299.00
16:25:49:472 -> 3309.00
16:25:49:491 -> 3335.00
16:25:49:491 -> 3323.00
16:25:49:491 -> 3315.00
16:25:49:491 -> 3327.00
16:25:49:491 -> 3335.00
16:25:49:491 -> 3358.00
16:25:49:491 -> 3363.00
16:25:49:491 -> 3372.00
16:25:49:491 -> 3379.00
16:25:49:507 -> 3356.00
16:25:49:507 -> 3364.00
16:25:49:507 -> 3349.00
16:25:49:507 -> 3361.00
16:25:49:507 -> 3331.00
16:25:49:507 -> 3343.00
16:25:49:507 -> 3344.00
16:25:49:507 -> 3321.00
16:25:49:507 -> 3323.00
16:25:49:507 -> 3335.00
16:25:49:507 -> 3338.00
16:25:49:507 -> 3359.00
16:25:49:507 -> 3360.00
16:25:49:507 -> 3329.00
16:25:49:507 -> 3358.00
16:25:49:507 -> 3369.00
16:25:49:507 -> 3361.00
16:25:49:507 -> 3360.00
16:25:49:507 -> 3365.00
16:25:49:507 -> 3358.00
16:25:49:517 -> 3365.00
16:25:49:517 -> 3336.00
16:25:49:517 -> 3347.00
16:25:49:517 -> 3306.00
16:25:49:517 -> 3294.00
16:25:49:517 -> 3300.00
16:25:49:517 -> 3277.00
16:25:49:517 -> 3333.00
16:25:49:517 -> 3320.00
16:25:49:520 -> 3335.00
16:25:49:520 -> 3323.00
16:25:49:522 -> 3318.00
16:25:49:522 -> 3361.00
16:25:49:530 -> 3398.00
16:25:49:530 -> 3365.00
16:25:49:530 -> 3376.00
16:25:49:530 -> 3367.00
16:25:49:530 -> 3335.00
16:25:49:530 -> 3333.00
16:25:49:535 -> 3332.00
16:25:49:535 -> 3333.00
16:25:49:535 -> 3326.00
16:25:49:535 -> 3325.00
16:25:49:535 -> 3353.00
16:25:49:536 -> 3350.00
16:25:49:537 -> 3379.00
16:25:49:538 -> 3378.00
16:25:49:540 -> 3359.00
16:25:49:541 -> 3358.00
16:25:49:542 -> 3324.00
16:25:49:543 -> 3299.00
16:25:49:544 -> 3311.00
16:25:49:546 -> 3308.00
16:25:49:547 -> 3344.00
16:25:49:548 -> 3319.00
16:25:49:549 -> 3332.00
16:25:49:550 -> 3339.00
16:25:49:551 -> 3341.00
16:25:49:553 -> 3367.00
16:25:49:554 -> 3321.00
16:25:49:555 -> 3358.00
16:25:49:556 -> 3378.00
16:25:49:557 -> 3358.00
16:25:49:559 -> 3378.00
16:25:49:560 -> 3359.00
16:25:49:561 -> 3339.00
16:25:49:562 -> 3355.00
16:25:49:563 -> 3376.00
16:25:49:565 -> 3301.00
16:25:49:573 -> 3392.00
16:25:49:573 -> 3378.00
16:25:49:573 -> 3350.00
16:25:49:573 -> 3337.00
16:25:49:573 -> 3313.00
16:25:49:573 -> 3301.00
16:25:49:574 -> 3292.00
16:25:49:574 -> 3342.00
16:25:49:575 -> 3343.00
16:25:49:576 -> 3331.00
16:25:49:578 -> 3328.00
16:25:49:579 -> 3351.00
16:25:49:580 -> 3350.00
16:25:49:581 -> 3409.00
16:25:49:583 -> 3344.00
16:25:49:584 -> 3331.00
16:25:49:585 -> 3370.00
16:25:49:604 -> 3357.00
16:25:49:604 -> 3310.00
16:25:49:604 -> 3309.00
16:25:49:604 -> 3329.00
16:25:49:604 -> 3282.00
16:25:49:604 -> 3363.00
16:25:49:604 -> 3358.00
16:25:49:604 -> 3344.00
16:25:49:604 -> 3371.00
16:25:49:604 -> 3372.00
16:25:49:604 -> 3364.00
16:25:49:604 -> 3358.00
16:25:49:604 -> 3380.00
16:25:49:604 -> 3385.00
16:25:49:604 -> 3381.00
16:25:49:604 -> 3362.00
16:25:49:607 -> 3370.00
16:25:49:607 -> 3374.00
16:25:49:609 -> 3385.00
16:25:49:609 -> 3352.00
16:25:49:630 -> 3323.00
16:25:49:630 -> 3323.00
16:25:49:630 -> 3403.00
16:25:49:630 -> 3410.00
16:25:49:630 -> 3393.00
16:25:49:630 -> 3373.00
16:25:49:630 -> 3369.00
16:25:49:630 -> 3349.00
16:25:49:630 -> 3324.00
16:25:49:630 -> 3360.00
16:25:49:630 -> 3393.00
16:25:49:630 -> 3368.00
16:25:49:630 -> 3346.00
16:25:49:630 -> 3383.00
16:25:49:630 -> 3371.00
16:25:49:635 -> 3391.00
16:25:49:635 -> 3361.00
16:25:49:635 -> 3388.00
16:25:49:635 -> 3347.00
16:25:49:635 -> 3321.00
16:25:49:635 -> 3354.00
16:25:49:640 -> 3374.00
16:25:49:640 -> 3361.00
16:25:49:640 -> 3391.00
16:25:49:640 -> 3376.00
16:25:49:640 -> 3385.00
16:25:49:646 -> 3391.00
16:25:49:646 -> 3425.00
16:25:49:646 -> 3404.00
16:25:49:646 -> 3388.00
16:25:49:653 -> 3378.00
16:25:49:653 -> 3369.00
16:25:49:653 -> 3370.00
16:25:49:653 -> 3349.00
16:25:49:653 -> 3350.00
16:25:49:653 -> 3345.00
16:25:49:654 -> 3293.00
16:25:49:654 -> 3350.00
16:25:49:657 -> 3366.00
16:25:49:657 -> 3362.00
16:25:49:721 -> 3369.00
16:25:49:721 -> 3324.00
16:25:49:721 -> 3374.00
16:25:49:721 -> 3371.00
16:25:49:721 -> 3363.00
16:25:49:721 -> 3346.00
16:25:49:721 -> 3380.00
16:25:49:721 -> 3394.00
16:25:49:721 -> 3375.00
16:25:49:721 -> 3381.00
16:25:49:721 -> 3381.00
16:25:49:721 -> 3352.00
16:25:49:721 -> 3368.00
16:25:49:721 -> 3376.00
16:25:49:721 -> 3344.00
16:25:49:721 -> 3367.00
16:25:49:721 -> 3349.00
16:25:49:721 -> 3343.00
16:25:49:721 -> 3325.00
16:25:49:721 -> 3334.00
16:25:49:721 -> 3387.00
16:25:49:721 -> 3391.00
