16:26:50:362 -> 3397.00
16:26:50:363 -> 3380.00
16:26:50:364 -> 3339.00
16:26:50:365 -> 3332.00
16:26:50:367 -> 3354.00
16:26:50:368 -> 3403.00
16:26:50:369 -> 3402.00
16:26:50:370 -> 3389.00
16:26:50:371 -> 3393.00
16:26:50:373 -> 3391.00
16:26:50:374 -> 3413.00
16:26:50:375 -> 3437.00
16:26:50:377 -> 3409.00
16:26:50:378 -> 3406.00
16:26:50:379 -> 3424.00
16:26:50:380 -> 3413.00
16:26:50:401 -> 3396.00
16:26:50:401 -> 3377.00
16:26:50:401 -> 3363.00
16:26:50:401 -> 3383.00
16:26:50:401 -> 3394.00
16:26:50:401 -> 3392.00
16:26:50:401 -> 3380.00
16:26:50:401 -> 3396.00
16:26:50:401 -> 3420.00
16:26:50:401 -> 3370.00
16:26:50:405 -> 3408.00
16:26:50:405 -> 3399.00
16:26:50:405 -> 3431.00
16:26:50:405 -> 3402.00
16:26:50:405 -> 3407.00
16:26:50:405 -> 3425.00
16:26:50:405 -> 3410.00
16:26:50:405 -> 3395.00
16:26:50:405 -> 3373.00
16:26:50:405 -> 3391.00
16:26:50:407 -> 3384.00
16:26:50:407 -> 3384.00
16:26:50:408 -> 3390.00
16:26:50:408 -> 3394.00
16:26:50:410 -> 3364.00
16:26:50:411 -> 3365.00
16:26:50:412 -> 3386.00
16:26:50:413 -> 3418.00
16:26:50:414 -> 3457.00
16:26:50:415 -> 3464.00
16:26:50:417 -> 3430.00
16:26:50:418 -> 3418.00
16:26:50:419 -> 3381.00
16:26:50:420 -> 3400.00
16:26:50:421 -> 3413.00
16:26:50:423 -> 3400.00
16:26:50:424 -> 3386.00
16:26:50:425 -> 3363.00
16:26:50:426 -> 3368.00
16:26:50:430 -> 3391.00
16:26:50:430 -> 3387.00
16:26:50:432 -> 3388.00
16:26:50:432 -> 3387.00
16:26:50:433 -> 3404.00
16:26:50:434 -> 3408.00
16:26:50:435 -> 3437.00
16:26:50:436 -> 3379.00
16:26:50:437 -> 3407.00
16:26:50:438 -> 3418.00
16:26:50:439 -> 3425.00
16:26:50:440 -> 3409.00
16:26:50:442 -> 3416.00
16:26:50:443 -> 3387.00
16:26:50:444 -> 3335.00
16:26:50:445 -> 3384.00
16:26:50:446 -> 3392.00
16:26:50:448 -> 3397.00
16:26:50:449 -> 3397.00
16:26:50:450 -> 3396.00
16:26:50:451 -> 3385.00
16:26:50:452 -> 3371.00
16:26:50:457 -> 3390.00
16:26:50:457 -> 3370.00
16:26:50:457 -> 3443.00
16:26:50:458 -> 3419.00
16:26:50:462 -> 3425.00
16:26:50:462 -> 3410.00
16:26:50:462 -> 3395.00
16:26:50:462 -> 3386.00
16:26:50:464 -> 3350.00
16:26:50:464 -> 3325.00
16:26:50:465 -> 3374.00
16:26:50:467 -> 3367.00
16:26:50:479 -> 3323.00
16:26:50:479 -> 3405.00
16:26:50:479 -> 3405.00
16:26:50:479 -> 3413.00
16:26:50:479 -> 3430.00
16:26:50:479 -> 3440.00
16:26:50:479 -> 3405.00
16:26:50:479 -> 3434.00
16:26:50:479 -> 3419.00
16:26:50:479 -> 3425.00
16:26:50:481 -> 3434.00
16:26:50:481 -> 3400.00
16:26:50:484 -> 3387.00
16:26:50:484 -> 3388.00
16:26:50:487 -> 3387.00
16:26:50:487 -> 3396.00
16:26:50:487 -> 3375.00
16:26:50:488 -> 3403.00
16:26:50:490 -> 3426.00
16:26:50:495 -> 3423.00
16:26:50:495 -> 3437.00
16:26:50:495 -> 3445.00
16:26:50:495 -> 3462.00
16:26:50:496 -> 3446.00
16:26:50:497 -> 3415.00
16:26:50:498 -> 3437.00
16:26:50:499 -> 3402.00
16:26:50:500 -> 3395.00
16:26:50:501 -> 3382.00
16:26:50:502 -> 3350.00
16:26:50:503 -> 3359.00
16:26:50:505 -> 3394.00
16:26:50:507 -> 3377.00
16:26:50:514 -> 3428.00
16:26:50:514 -> 3389.00
16:26:50:514 -> 3401.00
16:26:50:514 -> 3386.00
16:26:50:514 -> 3404.00
16:26:50:514 -> 3411.00
16:26:50:528 -> 3443.00
16:26:50:528 -> 3474.00
16:26:50:528 -> 3392.00
16:26:50:528 -> 3436.00
16:26:50:528 -> 3405.00
16:26:50:528 -> 3395.00
16:26:50:528 -> 3357.00
16:26:50:528 -> 3331.00
16:26:50:528 -> 3312.00
16:26:50:528 -> 3361.00
16:26:50:528 -> 3366.00
16:26:50:528 -> 3413.00
16:26:50:532 -> 3431.00
16:26:50:532 -> 3413.00
16:26:50:532 -> 3403.00
16:26:50:532 -> 3386.00
16:26:50:551 -> 3407.00
16:26:50:551 -> 3449.00
16:26:50:551 -> 3465.00
16:26:50:551 -> 3465.00
16:26:50:551 -> 3444.00
16:26:50:551 -> 3411.00
16:26:50:551 -> 3385.00
16:26:50:551 -> 3384.00
16:26:50:551 -> 3379.00
16:26:50:551 -> 3362.00
16:26:50:551 -> 3418.00
16:26:50:551 -> 3387.00
16:26:50:551 -> 3418.00
16:26:50:551 -> 3468.00
16:26:50:552 -> 3387.00
16:26:50:552 -> 3427.00
16:26:50:553 -> 3413.00
16:26:50:554 -> 3428.00
16:26:50:555 -> 3453.00
16:26:50:556 -> 3443.00
16:26:50:558 -> 3422.00
16:26:50:559 -> 3391.00
16:26:50:560 -> 3401.00
16:26:50:561 -> 3397.00
16:26:50:562 -> 3426.00
16:26:50:563 -> 3417.00
16:26:50:564 -> 3364.00
16:26:50:566 -> 3343.00
16:26:50:567 -> 3357.00
16:26:50:568 -> 3385.00
16:26:50:601 -> 3404.00
16:26:50:601 -> 3336.00
16:26:50:601 -> 3384.00
16:26:50:601 -> 3377.00
16:26:50:601 -> 3382.00
16:26:50:601 -> 3372.00
16:26:50:601 -> 3402.00
16:26:50:601 -> 3401.00
16:26:50:601 -> 3376.00
16:26:50:601 -> 3391.00
16:26:50:601 -> 3394.00
16:26:50:601 -> 3386.00
16:26:50:601 -> 3454.00
16:26:50:601 -> 3451.00
16:26:50:601 -> 3446.00
16:26:50:601 -> 3440.00
16:26:50:601 -> 3435.00
16:26:50:601 -> 3437.00
16:26:50:601 -> 3417.00
16:26:50:601 -> 3379.00
16:26:50:601 -> 3408.00
16:26:50:601 -> 3478.00
16:26:50:601 -> 3462.00
16:26:50:601 -> 3415.00
16:26:50:601 -> 3455.00
16:26:50:601 -> 3434.00
16:26:50:601 -> 3427.00
16:26:50:601 -> 3401.00
16:26:50:618 -> 3429.00
16:26:50:618 -> 3400.00
16:26:50:618 -> 3406.00
16:26:50:618 -> 3419.00
16:26:50:618 -> 3420.00
16:26:50:618 -> 3399.00
16:26:50:618 -> 3411.00
16:26:50:618 -> 3399.00
16:26:50:618 -> 3407.00
16:26:50:618 -> 3419.00
16:26:50:618 -> 3485.00
16:26:50:618 -> 3402.00
16:26:50:618 -> 3439.00
16:26:50:618 -> 3439.00
16:26:50:637 -> 3425.00
16:26:50:637 -> 3413.00
16:26:50:637 -> 3426.00
16:26:50:637 -> 3377.00
16:26:50:637 -> 3347.00
16:26:50:637 -> 3396.00
16:26:50:637 -> 3386.00
16:26:50:637 -> 3403.00
16:26:50:637 -> 3403.00
16:26:50:637 -> 3410.00
16:26:50:637 -> 3430.00
16:26:50:637 -> 3435.00
16:26:50:637 -> 3427.00
16:26:50:637 -> 3377.00
16:26:50:637 -> 3425.00
16:26:50:637 -> 3438.00
16:26:50:639 -> 3427.00
16:26:50:639 -> 3427.00
16:26:50:641 -> 3449.00
16:26:50:643 -> 3408.00
16:26:50:644 -> 3402.00
16:26:50:644 -> 3412.00
16:26:50:645 -> 3431.00
16:26:50:646 -> 3404.00
16:26:50:648 -> 3417.00
16:26:50:650 -> 3396.00
16:26:50:664 -> 3389.00
16:26:50:664 -> 3414.00
16:26:50:664 -> 3398.00
16:26:50:664 -> 3406.00
16:26:50:664 -> 3373.00
16:26:50:664 -> 3399.00
16:26:50:664 -> 3411.00
16:26:50:664 -> 3413.00
16:26:50:664 -> 3429.00
16:26:50:664 -> 3408.00
16:26:50:664 -> 3392.00
16:26:50:664 -> 3390.00
16:26:50:664 -> 3384.00
16:26:50:687 -> 3338.00
16:26:50:687 -> 3363.00
16:26:50:687 -> 3364.00
16:26:50:687 -> 3379.00
16:26:50:687 -> 3410.00
16:26:50:687 -> 3433.00
16:26:50:687 -> 3417.00
16:26:50:687 -> 3436.00
16:26:50:687 -> 3431.00
16:26:50:687 -> 3441.00
16:26:50:687 -> 3407.00
16:26:50:687 -> 3430.00
16:26:50:687 -> 3422.00
16:26:50:687 -> 3390.00
16:26:50:687 -> 3440.00
16:26:50:687 -> 3402.00
16:26:50:687 -> 3370.00
16:26:50:687 -> 3359.00
16:26:50:687 -> 3437.00
16:26:50:728 -> 3426.00
16:26:50:728 -> 3428.00
16:26:50:728 -> 3422.00
16:26:50:728 -> 3440.00
16:26:50:728 -> 3462.00
16:26:50:728 -> 3411.00
16:26:50:728 -> 3417.00
16:26:50:728 -> 3433.00
16:26:50:728 -> 3422.00
16:26:50:728 -> 3445.00
16:26:50:728 -> 3411.00
16:26:50:728 -> 3427.00
16:26:50:728 -> 3413.00
16:26:50:728 -> 3375.00
16:26:50:728 -> 3346.00
16:26:50:728 -> 3378.00
16:26:50:728 -> 3405.00
16:26:50:728 -> 3412.00
16:26:50:728 -> 3405.00
16:26:50:728 -> 3453.00
16:26:50:728 -> 3457.00
16:26:50:728 -> 3453.00
16:26:50:728 -> 3437.00
16:26:50:728 -> 3391.00
16:26:50:728 -> 3407.00
16:26:50:728 -> 3433.00
16:26:50:728 -> 3431.00
16:26:50:728 -> 3402.00
16:26:50:728 -> 3392.00
16:26:50:728 -> 3356.00
16:26:50:728 -> 3336.00
16:26:50:728 -> 3380.00
16:26:50:728 -> 3404.00
16:26:50:728 -> 3466.00
16:26:50:746 -> 3436.00
16:26:50:746 -> 3406.00
16:26:50:746 -> 3415.00
16:26:50:746 -> 3379.00
16:26:50:746 -> 3420.00
16:26:50:746 -> 3421.00
16:26:50:746 -> 3451.00
16:26:50:746 -> 3484.00
16:26:50:746 -> 3473.00
16:26:50:746 -> 3440.00
16:26:50:746 -> 3412.00
16:26:50:746 -> 3416.00
16:26:50:746 -> 3389.00
16:26:50:746 -> 3360.00
16:26:50:746 -> 3354.00
16:26:50:764 -> 3412.00
16:26:50:764 -> 3371.00
16:26:50:764 -> 3378.00
16:26:50:764 -> 3340.00
16:26:50:764 -> 3311.00
16:26:50:764 -> 3327.00
16:26:50:764 -> 3398.00
16:26:50:764 -> 3388.00
16:26:50:764 -> 3406.00
16:26:50:764 -> 3416.00
16:26:50:764 -> 3433.00
16:26:50:764 -> 3462.00
16:26:50:764 -> 3482.00
16:26:50:764 -> 3431.00
16:26:50:764 -> 3419.00
16:26:50:768 -> 3438.00
16:26:50:768 -> 3411.00
16:26:50:768 -> 3431.00
16:26:50:768 -> 3419.00
16:26:50:769 -> 3427.00
16:26:50:770 -> 3425.00
16:26:50:779 -> 3440.00
16:26:50:779 -> 3401.00
16:26:50:779 -> 3443.00
16:26:50:779 -> 3465.00
16:26:50:779 -> 3443.00
16:26:50:781 -> 3454.00
16:26:50:781 -> 3461.00
16:26:50:781 -> 3442.00
16:26:50:781 -> 3402.00
16:26:50:782 -> 3397.00
16:26:50:815 -> 3411.00
16:26:50:815 -> 3427.00
16:26:50:815 -> 3397.00
16:26:50:815 -> 3375.00
16:26:50:815 -> 3370.00
16:26:50:815 -> 3368.00
16:26:50:815 -> 3388.00
16:26:50:815 -> 3417.00
16:26:50:815 -> 3442.00
16:26:50:815 -> 3464.00
16:26:50:819 -> 3412.00
16:26:50:819 -> 3343.00
16:26:50:819 -> 3418.00
16:26:50:819 -> 3381.00
16:26:50:819 -> 3433.00
16:26:50:819 -> 3436.00
16:26:50:819 -> 3422.00
16:26:50:819 -> 3409.00
16:26:50:819 -> 3414.00
16:26:50:819 -> 3410.00
16:26:50:819 -> 3411.00
16:26:50:819 -> 3435.00
16:26:50:819 -> 3426.00
16:26:50:819 -> 3414.00
16:26:50:819 -> 3430.00
16:26:50:819 -> 3433.00
16:26:50:819 -> 3427.00
16:26:50:819 -> 3401.00
16:26:50:819 -> 3433.00
16:26:50:819 -> 3491.00
16:26:50:820 -> 3450.00
16:26:50:820 -> 3422.00
16:26:50:821 -> 3380.00
16:26:50:822 -> 3394.00
16:26:50:824 -> 3399.00
16:26:50:825 -> 3373.00
16:26:50:826 -> 3404.00
16:26:50:827 -> 3425.00
16:26:50:828 -> 3442.00
16:26:50:830 -> 3421.00
16:26:50:831 -> 3401.00
16:26:50:832 -> 3400.00
16:26:50:833 -> 3420.00
16:26:50:834 -> 3470.00
16:26:50:864 -> 3458.00
16:26:50:867 -> 3428.00
16:26:50:867 -> 3420.00
16:26:50:867 -> 3418.00
16:26:50:867 -> 3375.00
16:26:50:867 -> 3368.00
16:26:50:867 -> 3376.00
16:26:50:867 -> 3310.00
16:26:50:867 -> 3325.00
16:26:50:867 -> 3378.00
16:26:50:867 -> 3380.00
16:26:50:867 -> 3409.00
16:26:50:867 -> 3433.00
16:26:50:867 -> 3408.00
16:26:50:867 -> 3376.00
16:26:50:867 -> 3438.00
16:26:50:867 -> 3434.00
16:26:50:867 -> 3406.00
16:26:50:867 -> 3418.00
16:26:50:867 -> 3455.00
16:26:50:867 -> 3420.00
16:26:50:867 -> 3398.00
16:26:50:867 -> 3389.00
16:26:50:867 -> 3403.00
16:26:50:867 -> 3413.00
16:26:50:867 -> 3421.00
16:26:50:867 -> 3423.00
16:26:50:868 -> 3448.00
16:26:50:870 -> 3440.00
16:26:50:870 -> 3445.00
16:26:50:871 -> 3402.00
16:26:50:872 -> 3417.00
16:26:50:874 -> 3423.00
16:26:50:875 -> 3449.00
16:26:50:876 -> 3440.00
16:26:50:877 -> 3421.00
16:26:50:878 -> 3397.00
16:26:50:880 -> 3423.00
16:26:50:881 -> 3338.00
16:26:50:882 -> 3357.00
16:26:50:883 -> 3395.00
16:26:50:884 -> 3378.00
16:26:50:886 -> 3364.00
16:26:50:887 -> 3372.00
16:26:50:888 -> 3451.00
16:26:50:889 -> 3469.00
16:26:50:890 -> 3450.00
16:26:50:892 -> 3444.00
16:26:50:893 -> 3421.00
16:26:50:894 -> 3497.00
16:26:50:895 -> 3437.00
16:26:50:896 -> 3467.00
16:26:50:898 -> 3421.00
16:26:50:899 -> 3408.00
16:26:50:900 -> 3397.00
16:26:50:901 -> 3411.00
16:26:50:902 -> 3379.00
16:26:50:904 -> 3432.00
16:26:50:906 -> 3392.00
16:26:50:907 -> 3363.00
16:26:50:908 -> 3378.00
16:26:50:908 -> 3393.00
16:26:50:910 -> 3402.00
16:26:50:911 -> 3392.00
16:26:50:912 -> 3416.00
16:26:50:913 -> 3451.00
16:26:50:914 -> 3493.00
16:26:50:915 -> 3441.00
16:26:50:920 -> 3409.00
16:26:50:920 -> 3437.00
16:26:50:920 -> 3449.00
16:26:50:921 -> 3421.00
16:26:50:921 -> 3384.00
16:26:50:924 -> 3426.00
16:26:50:924 -> 3398.00
16:26:50:929 -> 3413.00
16:26:50:929 -> 3377.00
16:26:50:929 -> 3393.00
16:26:50:933 -> 3408.00
16:26:50:933 -> 3465.00
16:26:50:933 -> 3502.00
16:26:50:933 -> 3561.00
16:26:50:936 -> 3433.00
16:26:50:936 -> 3403.00
16:26:50:936 -> 3431.00
16:26:50:939 -> 3397.00
16:26:50:939 -> 3412.00
16:26:50:940 -> 3383.00
16:26:50:940 -> 3369.00
16:26:50:942 -> 3328.00
16:26:50:943 -> 3351.00
16:26:50:944 -> 3333.00
16:26:50:945 -> 3493.00
16:26:50:946 -> 3370.00
16:26:50:948 -> 3414.00
16:26:50:949 -> 3389.00
16:26:50:952 -> 3425.00
16:26:50:952 -> 3412.00
16:26:50:952 -> 3434.00
16:26:50:956 -> 3442.00
16:26:50:956 -> 3423.00
16:26:50:956 -> 3473.00
16:26:50:960 -> 3544.00
16:26:50:960 -> 3525.00
16:26:50:960 -> 3460.00
16:26:50:974 -> 3318.00
16:26:50:974 -> 3411.00
16:26:50:974 -> 3371.00
16:26:50:974 -> 3336.00
16:26:50:974 -> 3388.00
16:26:50:974 -> 3362.00
16:26:50:974 -> 3414.00
16:26:50:974 -> 3432.00
16:26:50:974 -> 3497.00
16:26:50:974 -> 3377.00
16:26:50:974 -> 3332.00
16:26:50:978 -> 3425.00
16:26:50:978 -> 3401.00
16:26:50:978 -> 3442.00
16:26:50:978 -> 3359.00
16:26:50:979 -> 3407.00
16:26:50:980 -> 3432.00
16:26:50:990 -> 3471.00
16:26:50:990 -> 3446.00
16:26:50:990 -> 3374.00
16:26:50:990 -> 3376.00
16:26:50:990 -> 3311.00
16:26:50:990 -> 3421.00
16:26:50:990 -> 3394.00
16:26:50:990 -> 3393.00
16:26:50:992 -> 3318.00
16:26:50:992 -> 3375.00
16:26:50:996 -> 3411.00
16:26:50:996 -> 3387.00
16:26:50:999 -> 3393.00
16:26:50:999 -> 3466.00
16:26:50:999 -> 3458.00
16:26:50:999 -> 3356.00
16:26:51:000 -> 3435.00
16:26:51:001 -> 3443.00
16:26:51:008 -> 3442.00
16:26:51:008 -> 3544.00
16:26:51:008 -> 3449.00
16:26:51:008 -> 3352.00
16:26:51:012 -> 3311.00
16:26:51:012 -> 3421.00
16:26:51:012 -> 3433.00
16:26:51:012 -> 3418.00
16:26:51:014 -> 3391.00
16:26:51:014 -> 3427.00
16:26:51:014 -> 3486.00
16:26:51:041 -> 3580.00
16:26:51:041 -> 3514.00
16:26:51:041 -> 3496.00
16:26:51:041 -> 3287.00
16:26:51:041 -> 3333.00
16:26:51:041 -> 3386.00
16:26:51:041 -> 3396.00
16:26:51:041 -> 3356.00
16:26:51:041 -> 3400.00
16:26:51:041 -> 3259.00
16:26:51:041 -> 3354.00
16:26:51:041 -> 3390.00
16:26:51:041 -> 3388.00
16:26:51:041 -> 3434.00
16:26:51:041 -> 3395.00
16:26:51:041 -> 3440.00
16:26:51:041 -> 3475.00
16:26:51:041 -> 3468.00
16:26:51:041 -> 3445.00
16:26:51:041 -> 3445.00
16:26:51:041 -> 3414.00
16:26:51:041 -> 3359.00
16:26:51:050 -> 3273.00
16:26:51:050 -> 3389.00
16:26:51:050 -> 3360.00
16:26:51:050 -> 3370.00
16:26:51:050 -> 3455.00
16:26:51:050 -> 3406.00
16:26:51:050 -> 3225.00
16:26:51:050 -> 3238.00
16:26:51:057 -> 3335.00
16:26:51:057 -> 3370.00
16:26:51:057 -> 3425.00
16:26:51:057 -> 3406.00
16:26:51:057 -> 3452.00
16:26:51:057 -> 3506.00
16:26:51:059 -> 3511.00
16:26:51:061 -> 3450.00
16:26:51:061 -> 3325.00
16:26:51:065 -> 3343.00
16:26:51:065 -> 3502.00
16:26:51:065 -> 3546.00
16:26:51:066 -> 3475.00
16:26:51:067 -> 3271.00
16:26:51:068 -> 3415.00
16:26:51:069 -> 3374.00
16:26:51:070 -> 3347.00
16:26:51:071 -> 3369.00
16:26:51:073 -> 3367.00
16:26:51:074 -> 3451.00
16:26:51:075 -> 3437.00
16:26:51:076 -> 3460.00
16:26:51:078 -> 3440.00
16:26:51:079 -> 3511.00
16:26:51:081 -> 3476.00
16:26:51:081 -> 3430.00
16:26:51:082 -> 3415.00
16:26:51:083 -> 3404.00
16:26:51:084 -> 3432.00
16:26:51:086 -> 3435.00
16:26:51:087 -> 3355.00
16:26:51:088 -> 3315.00
16:26:51:090 -> 3333.00
16:26:51:090 -> 3434.00
16:26:51:092 -> 3442.00
16:26:51:093 -> 3457.00
16:26:51:095 -> 3569.00
16:26:51:095 -> 3491.00
16:26:51:097 -> 3487.00
16:26:51:097 -> 3495.00
16:26:51:099 -> 3406.00
16:26:51:100 -> 3423.00
16:26:51:101 -> 3346.00
16:26:51:102 -> 3302.00
16:26:51:104 -> 3368.00
16:26:51:135 -> 3372.00
16:26:51:135 -> 3339.00
16:26:51:141 -> 3289.00
16:26:51:141 -> 3345.00
16:26:51:141 -> 3362.00
16:26:51:141 -> 3336.00
16:26:51:141 -> 3335.00
16:26:51:141 -> 3454.00
16:26:51:141 -> 3410.00
16:26:51:141 -> 3350.00
16:26:51:141 -> 3291.00
16:26:51:141 -> 3484.00
16:26:51:141 -> 3521.00
16:26:51:141 -> 3485.00
16:26:51:141 -> 3361.00
16:26:51:141 -> 3399.00
16:26:51:141 -> 3359.00
16:26:51:141 -> 3367.00
16:26:51:141 -> 3380.00
16:26:51:141 -> 3355.00
16:26:51:141 -> 3337.00
16:26:51:141 -> 3329.00
16:26:51:141 -> 3254.00
16:26:51:141 -> 3185.00
16:26:51:141 -> 3273.00
16:26:51:141 -> 3264.00
16:26:51:141 -> 3464.00
16:26:51:141 -> 3199.00
16:26:51:141 -> 3293.00
16:26:51:141 -> 3299.00
16:26:51:141 -> 3379.00
16:26:51:144 -> 3368.00
16:26:51:144 -> 3461.00
16:26:51:144 -> 3499.00
16:26:51:145 -> 3365.00
16:26:51:146 -> 3330.00
16:26:51:147 -> 3406.00
16:26:51:149 -> 3486.00
16:26:51:150 -> 3463.00
16:26:51:151 -> 3508.00
16:26:51:152 -> 3512.00
16:26:51:153 -> 3521.00
16:26:51:155 -> 3540.00
16:26:51:166 -> 3360.00
16:26:51:166 -> 3386.00
16:26:51:172 -> 3405.00
16:26:51:172 -> 3337.00
16:26:51:172 -> 3333.00
16:26:51:172 -> 3420.00
16:26:51:172 -> 3407.00
16:26:51:172 -> 3319.00
16:26:51:172 -> 3388.00
16:26:51:172 -> 3492.00
16:26:51:172 -> 3440.00
16:26:51:172 -> 3421.00
16:26:51:172 -> 3330.00
16:26:51:172 -> 3509.00
16:26:51:181 -> 3490.00
16:26:51:181 -> 3544.00
16:26:51:181 -> 3257.00
16:26:51:181 -> 3452.00
16:26:51:181 -> 3502.00
16:26:51:181 -> 3406.00
16:26:51:181 -> 3490.00
16:26:51:182 -> 3465.00
16:26:51:184 -> 3376.00
16:26:51:184 -> 3372.00
16:26:51:189 -> 3307.00
16:26:51:189 -> 3287.00
16:26:51:189 -> 3296.00
16:26:51:189 -> 3166.00
16:26:51:247 -> 3169.00
16:26:51:247 -> 3248.00
16:26:51:247 -> 3227.00
16:26:51:247 -> 3412.00
16:26:51:247 -> 3433.00
16:26:51:247 -> 3457.00
16:26:51:247 -> 3492.00
16:26:51:247 -> 3505.00
16:26:51:247 -> 3443.00
16:26:51:247 -> 3446.00
16:26:51:247 -> 3381.00
16:26:51:247 -> 3363.00
16:26:51:247 -> 3474.00
16:26:51:260 -> 3417.00
16:26:51:260 -> 3400.00
16:26:51:260 -> 3259.00
16:26:51:260 -> 3296.00
16:26:51:260 -> 3244.00
16:26:51:260 -> 3292.00
16:26:51:260 -> 3473.00
16:26:51:260 -> 3641.00
16:26:51:260 -> 3587.00
16:26:51:260 -> 3321.00
16:26:51:260 -> 3254.00
16:26:51:260 -> 3456.00
16:26:51:260 -> 3450.00
16:26:51:260 -> 3492.00
16:26:51:260 -> 3471.00
16:26:51:260 -> 3380.00
16:26:51:260 -> 3335.00
16:26:51:260 -> 3352.00
16:26:51:260 -> 3348.00
16:26:51:260 -> 3180.00
16:26:51:260 -> 3311.00
16:26:51:260 -> 3417.00
16:26:51:260 -> 3522.00
16:26:51:260 -> 3382.00
16:26:51:260 -> 3397.00
16:26:51:260 -> 3423.00
16:26:51:260 -> 3426.00
16:26:51:260 -> 3449.00
16:26:51:260 -> 3472.00
16:26:51:260 -> 3383.00
16:26:51:260 -> 3508.00
16:26:51:260 -> 3536.00
16:26:51:260 -> 3452.00
16:26:51:260 -> 3331.00
16:26:51:260 -> 3221.00
16:26:51:260 -> 3267.00
16:26:51:260 -> 3444.00
16:26:51:260 -> 3478.00
16:26:51:260 -> 3515.00
16:26:51:260 -> 3317.00
16:26:51:260 -> 3403.00
16:26:51:260 -> 3475.00
16:26:51:260 -> 3330.00
16:26:51:260 -> 3460.00
16:26:51:260 -> 3568.00
16:26:51:260 -> 3447.00
16:26:51:260 -> 3200.00
16:26:51:264 -> 3274.00
16:26:51:264 -> 3261.00
16:26:51:264 -> 3441.00
16:26:51:264 -> 3259.00
16:26:51:267 -> 3255.00
16:26:51:267 -> 3344.00
16:26:51:269 -> 3603.00
16:26:51:270 -> 3483.00
16:26:51:271 -> 3357.00
16:26:51:272 -> 3425.00
16:26:51:273 -> 3490.00
16:26:51:274 -> 3486.00
16:26:51:275 -> 3417.00
16:26:51:276 -> 3463.00
16:26:51:278 -> 3503.00
16:26:51:282 -> 3477.00
16:26:51:282 -> 3380.00
16:26:51:282 -> 3313.00
16:26:51:283 -> 3258.00
16:26:51:283 -> 3333.00
16:26:51:286 -> 3318.00
16:26:51:286 -> 3359.00
16:26:51:287 -> 3290.00
16:26:51:289 -> 3361.00
16:26:51:300 -> 3419.00
16:26:51:300 -> 3310.00
16:26:51:300 -> 3421.00
16:26:51:300 -> 3446.00
16:26:51:300 -> 3340.00
16:26:51:300 -> 3422.00
16:26:51:300 -> 3565.00
16:26:51:300 -> 3477.00
16:26:51:300 -> 3339.00
16:26:51:303 -> 3367.00
16:26:51:303 -> 3452.00
16:26:51:303 -> 3579.00
16:26:51:304 -> 3352.00
16:26:51:305 -> 3327.00
16:26:51:307 -> 3363.00
16:26:51:308 -> 3143.00
16:26:51:309 -> 3104.00
16:26:51:311 -> 3229.00
16:26:51:312 -> 3346.00
16:26:51:312 -> 3365.00
16:26:51:313 -> 3497.00
16:26:51:314 -> 3154.00
16:26:51:316 -> 3303.00
16:26:51:316 -> 3531.00
16:26:51:318 -> 3363.00
16:26:51:319 -> 3427.00
16:26:51:320 -> 3525.00
16:26:51:321 -> 3433.00
16:26:51:323 -> 3366.00
16:26:51:324 -> 3393.00
16:26:51:325 -> 3603.00
16:26:51:326 -> 3316.00
16:26:51:327 -> 3294.00
16:26:51:328 -> 3250.00
16:26:51:335 -> 3295.00
16:26:51:335 -> 3295.00
16:26:51:335 -> 3320.00
16:26:51:335 -> 3309.00
16:26:51:335 -> 3501.00
16:26:51:339 -> 3549.00
16:26:51:339 -> 3504.00
16:26:51:339 -> 3335.00
16:26:51:339 -> 3161.00
16:26:51:354 -> 3463.00
16:26:51:354 -> 3405.00
16:26:51:354 -> 3483.00
16:26:51:354 -> 3513.00
16:26:51:354 -> 3422.00
16:26:51:354 -> 3370.00
16:26:51:354 -> 3403.00
16:26:51:354 -> 3447.00
16:26:51:354 -> 3428.00
16:26:51:354 -> 3351.00
16:26:51:354 -> 3414.00
16:26:51:354 -> 3462.00
16:26:51:357 -> 3494.00
16:26:51:357 -> 3472.00
16:26:51:357 -> 3456.00
16:26:51:358 -> 3320.00
16:26:51:360 -> 3278.00
16:26:51:361 -> 3501.00
16:26:51:362 -> 3464.00
16:26:51:402 -> 3346.00
16:26:51:409 -> 3479.00
16:26:51:409 -> 3563.00
16:26:51:409 -> 3262.00
16:26:51:409 -> 3254.00
16:26:51:409 -> 3319.00
16:26:51:409 -> 3369.00
16:26:51:409 -> 3396.00
16:26:51:409 -> 3405.00
16:26:51:409 -> 3342.00
16:26:51:409 -> 3309.00
16:26:51:409 -> 3412.00
16:26:51:409 -> 3413.00
16:26:51:409 -> 3412.00
16:26:51:409 -> 3433.00
16:26:51:409 -> 3411.00
16:26:51:409 -> 3353.00
16:26:51:409 -> 3247.00
16:26:51:409 -> 3249.00
16:26:51:409 -> 3348.00
16:26:51:409 -> 3251.00
16:26:51:409 -> 3267.00
16:26:51:409 -> 3304.00
16:26:51:409 -> 3287.00
16:26:51:409 -> 3363.00
16:26:51:409 -> 3520.00
16:26:51:409 -> 3439.00
16:26:51:409 -> 3245.00
16:26:51:409 -> 3274.00
16:26:51:409 -> 3154.00
16:26:51:409 -> 3263.00
16:26:51:409 -> 3363.00
16:26:51:409 -> 3347.00
16:26:51:409 -> 3397.00
16:26:51:409 -> 3670.00
16:26:51:409 -> 3502.00
16:26:51:409 -> 3400.00
16:26:51:409 -> 3349.00
16:26:51:409 -> 3296.00
16:26:51:409 -> 3302.00
16:26:51:411 -> 3375.00
16:26:51:412 -> 3448.00
16:26:51:449 -> 3369.00
16:26:51:449 -> 3394.00
16:26:51:449 -> 3161.00
16:26:51:449 -> 3180.00
16:26:51:449 -> 3119.00
16:26:51:449 -> 3191.00
16:26:51:449 -> 3306.00
16:26:51:449 -> 3384.00
16:26:51:449 -> 3363.00
16:26:51:449 -> 3748.00
16:26:51:449 -> 3686.00
16:26:51:449 -> 3516.00
16:26:51:449 -> 3409.00
16:26:51:449 -> 3475.00
16:26:51:449 -> 3480.00
16:26:51:449 -> 3327.00
16:26:51:459 -> 3364.00
16:26:51:459 -> 3405.00
16:26:51:459 -> 3472.00
16:26:51:459 -> 3493.00
16:26:51:459 -> 3438.00
16:26:51:459 -> 3439.00
16:26:51:459 -> 3528.00
16:26:51:459 -> 3381.00
16:26:51:459 -> 3292.00
16:26:51:459 -> 3269.00
16:26:51:459 -> 3319.00
16:26:51:459 -> 3452.00
16:26:51:459 -> 3602.00
16:26:51:459 -> 3187.00
16:26:51:459 -> 3259.00
16:26:51:459 -> 3308.00
16:26:51:459 -> 3359.00
16:26:51:459 -> 3511.00
16:26:51:459 -> 3392.00
16:26:51:459 -> 3387.00
16:26:51:459 -> 3326.00
16:26:51:459 -> 3462.00
16:26:51:459 -> 3634.00
16:26:51:462 -> 3408.00
16:26:51:462 -> 3390.00
16:26:51:462 -> 3593.00
16:26:51:467 -> 3277.00
16:26:51:467 -> 3221.00
16:26:51:467 -> 3309.00
16:26:51:467 -> 3405.00
16:26:51:468 -> 3434.00
16:26:51:469 -> 3396.00
16:26:51:470 -> 3402.00
16:26:51:471 -> 3409.00
16:26:51:472 -> 3433.00
16:26:51:474 -> 3319.00
16:26:51:475 -> 3412.00
16:26:51:476 -> 3577.00
16:26:51:478 -> 3380.00
16:26:51:479 -> 3369.00
16:26:51:479 -> 3378.00
16:26:51:481 -> 3320.00
16:26:51:482 -> 3303.00
16:26:51:483 -> 3140.00
16:26:51:484 -> 3161.00
16:26:51:485 -> 3157.00
16:26:51:487 -> 3216.00
16:26:51:497 -> 3270.00
16:26:51:500 -> 3137.00
16:26:51:500 -> 3405.00
16:26:51:500 -> 3739.00
16:26:51:500 -> 3638.00
16:26:51:500 -> 3566.00
16:26:51:500 -> 3370.00
16:26:51:500 -> 3324.00
16:26:51:500 -> 3230.00
16:26:51:500 -> 3157.00
16:26:51:500 -> 3321.00
16:26:51:508 -> 3249.00
16:26:51:508 -> 3273.00
16:26:51:508 -> 3244.00
16:26:51:508 -> 3123.00
16:26:51:508 -> 3243.00
16:26:51:508 -> 3567.00
16:26:51:513 -> 3391.00
16:26:51:513 -> 3661.00
16:26:51:513 -> 3485.00
16:26:51:513 -> 3371.00
16:26:51:513 -> 3556.00
16:26:51:516 -> 3563.00
16:26:51:516 -> 3575.00
16:26:51:516 -> 3511.00
16:26:51:520 -> 3498.00
16:26:51:520 -> 3484.00
16:26:51:520 -> 3468.00
16:26:51:522 -> 3402.00
16:26:51:536 -> 3225.00
16:26:51:536 -> 3244.00
16:26:51:536 -> 3355.00
16:26:51:536 -> 3410.00
16:26:51:536 -> 3288.00
16:26:51:536 -> 3273.00
16:26:51:536 -> 3338.00
16:26:51:536 -> 3381.00
16:26:51:536 -> 3402.00
16:26:51:536 -> 3425.00
16:26:51:536 -> 3535.00
16:26:51:536 -> 3456.00
16:26:51:540 -> 3369.00
16:26:51:540 -> 3438.00
16:26:51:540 -> 3437.00
16:26:51:542 -> 3421.00
16:26:51:542 -> 3420.00
16:26:51:544 -> 3396.00
16:26:51:544 -> 3283.00
16:26:51:545 -> 3282.00
16:26:51:546 -> 3325.00
16:26:51:547 -> 3373.00
16:26:51:548 -> 3428.00
16:26:51:552 -> 3398.00
16:26:51:552 -> 3357.00
16:26:51:558 -> 3452.00
16:26:51:558 -> 3357.00
16:26:51:558 -> 3276.00
16:26:51:558 -> 3235.00
16:26:51:558 -> 3371.00
16:26:51:564 -> 3337.00
16:26:51:564 -> 3433.00
16:26:51:564 -> 3426.00
16:26:51:564 -> 3364.00
16:26:51:564 -> 3470.00
16:26:51:564 -> 3433.00
16:26:51:571 -> 3281.00
16:26:51:571 -> 3305.00
16:26:51:571 -> 3350.00
16:26:51:571 -> 3292.00
16:26:51:571 -> 3174.00
16:26:51:578 -> 3219.00
16:26:51:578 -> 3134.00
16:26:51:578 -> 3266.00
16:26:51:578 -> 3344.00
16:26:51:578 -> 3366.00
16:26:51:578 -> 3387.00
16:26:51:580 -> 3504.00
16:26:51:580 -> 3485.00
16:26:51:581 -> 3416.00
16:26:51:583 -> 3363.00
16:26:51:584 -> 3348.00
16:26:51:584 -> 3409.00
16:26:51:586 -> 3436.00
16:26:51:587 -> 3413.00
16:26:51:588 -> 3398.00
16:26:51:590 -> 3439.00
16:26:51:606 -> 3387.00
16:26:51:606 -> 3429.00
16:26:51:606 -> 3395.00
16:26:51:606 -> 3439.00
16:26:51:606 -> 3319.00
16:26:51:647 -> 3314.00
16:26:51:647 -> 3568.00
16:26:51:647 -> 3374.00
16:26:51:647 -> 3358.00
16:26:51:647 -> 3411.00
16:26:51:647 -> 3359.00
16:26:51:647 -> 3306.00
16:26:51:647 -> 3302.00
16:26:51:647 -> 3275.00
16:26:51:647 -> 3307.00
16:26:51:647 -> 3499.00
16:26:51:647 -> 3522.00
16:26:51:647 -> 3381.00
16:26:51:647 -> 3360.00
16:26:51:647 -> 3379.00
16:26:51:647 -> 3450.00
16:26:51:647 -> 3414.00
16:26:51:647 -> 3431.00
16:26:51:647 -> 3360.00
16:26:51:647 -> 3412.00
16:26:51:647 -> 3394.00
16:26:51:647 -> 3374.00
16:26:51:647 -> 3419.00
16:26:51:647 -> 3352.00
16:26:51:647 -> 3265.00
16:26:51:647 -> 3277.00
16:26:51:647 -> 3304.00
16:26:51:647 -> 3342.00
16:26:51:647 -> 3375.00
16:26:51:647 -> 3343.00
16:26:51:647 -> 3285.00
16:26:51:647 -> 3317.00
16:26:51:647 -> 3379.00
16:26:51:647 -> 3373.00
16:26:51:647 -> 3415.00
16:26:51:647 -> 3488.00
16:26:51:667 -> 3516.00
16:26:51:667 -> 3526.00
16:26:51:667 -> 3519.00
16:26:51:667 -> 3338.00
16:26:51:667 -> 3470.00
16:26:51:667 -> 3408.00
16:26:51:667 -> 3430.00
16:26:51:667 -> 3403.00
16:26:51:667 -> 3381.00
16:26:51:667 -> 3381.00
16:26:51:667 -> 3446.00
16:26:51:667 -> 3281.00
16:26:51:667 -> 3323.00
16:26:51:667 -> 3283.00
16:26:51:667 -> 3324.00
16:26:51:667 -> 3371.00
16:26:51:667 -> 3300.00
16:26:51:667 -> 3372.00
16:26:51:667 -> 3397.00
16:26:51:667 -> 3383.00
16:26:51:667 -> 3128.00
16:26:51:667 -> 3372.00
16:26:51:667 -> 3287.00
16:26:51:667 -> 3336.00
16:26:51:673 -> 3489.00
16:26:51:673 -> 3432.00
16:26:51:673 -> 3372.00
16:26:51:673 -> 3352.00
16:26:51:673 -> 3352.00
16:26:51:683 -> 3447.00
16:26:51:683 -> 3428.00
16:26:51:683 -> 3363.00
16:26:51:683 -> 3307.00
16:26:51:683 -> 3299.00
16:26:51:683 -> 3457.00
16:26:51:683 -> 3463.00
16:26:51:683 -> 3412.00
16:26:51:683 -> 3470.00
16:26:51:696 -> 3448.00
16:26:51:696 -> 3364.00
16:26:51:696 -> 3352.00
16:26:51:696 -> 3424.00
16:26:51:696 -> 3401.00
16:26:51:696 -> 3351.00
16:26:51:696 -> 3413.00
16:26:51:696 -> 3427.00
16:26:51:696 -> 3484.00
16:26:51:696 -> 3509.00
16:26:51:712 -> 3573.00
16:26:51:712 -> 3477.00
16:26:51:712 -> 3497.00
16:26:51:712 -> 3409.00
16:26:51:712 -> 3475.00
16:26:51:712 -> 3473.00
16:26:51:712 -> 3457.00
16:26:51:712 -> 3309.00
16:26:51:712 -> 3171.00
16:26:51:712 -> 3257.00
16:26:51:712 -> 3413.00
16:26:51:712 -> 3406.00
16:26:51:712 -> 3370.00
16:26:51:728 -> 3420.00
16:26:51:728 -> 3454.00
16:26:51:728 -> 3422.00
16:26:51:728 -> 3382.00
16:26:51:728 -> 3361.00
16:26:51:728 -> 3383.00
16:26:51:728 -> 3318.00
16:26:51:728 -> 3311.00
16:26:51:728 -> 3441.00
16:26:51:728 -> 3407.00
16:26:51:728 -> 3293.00
16:26:51:728 -> 3331.00
16:26:51:728 -> 3400.00
16:26:51:728 -> 3374.00
16:26:51:742 -> 3363.00
16:26:51:742 -> 3495.00
16:26:51:742 -> 3416.00
16:26:51:742 -> 3397.00
16:26:51:742 -> 3347.00
16:26:51:742 -> 3469.00
16:26:51:742 -> 3416.00
16:26:51:742 -> 3327.00
16:26:51:742 -> 3284.00
16:26:51:742 -> 3296.00
16:26:51:742 -> 3330.00
16:26:51:742 -> 3454.00
16:26:51:755 -> 3348.00
16:26:51:755 -> 3355.00
16:26:51:755 -> 3305.00
16:26:51:755 -> 3405.00
16:26:51:755 -> 3507.00
16:26:51:755 -> 3396.00
16:26:51:755 -> 3346.00
16:26:51:755 -> 3315.00
16:26:51:755 -> 3260.00
16:26:51:755 -> 3099.00
16:26:51:755 -> 3189.00
16:26:51:793 -> 3374.00
16:26:51:793 -> 3313.00
16:26:51:793 -> 3421.00
16:26:51:793 -> 3365.00
16:26:51:793 -> 3446.00
16:26:51:793 -> 3313.00
16:26:51:793 -> 3360.00
16:26:51:793 -> 3363.00
16:26:51:793 -> 3314.00
16:26:51:793 -> 3472.00
16:26:51:793 -> 3497.00
16:26:51:793 -> 3506.00
16:26:51:793 -> 3569.00
16:26:51:793 -> 3556.00
16:26:51:793 -> 3458.00
16:26:51:793 -> 3434.00
16:26:51:793 -> 3392.00
16:26:51:835 -> 3366.00
16:26:51:835 -> 3357.00
16:26:51:835 -> 3455.00
16:26:51:835 -> 3634.00
16:26:51:835 -> 3515.00
16:26:51:835 -> 3566.00
16:26:51:835 -> 3303.00
16:26:51:835 -> 3315.00
16:26:51:835 -> 3343.00
16:26:51:835 -> 3329.00
16:26:51:835 -> 3302.00
16:26:51:835 -> 3353.00
16:26:51:835 -> 3323.00
16:26:51:835 -> 3401.00
16:26:51:835 -> 3454.00
16:26:51:835 -> 3461.00
16:26:51:835 -> 3446.00
16:26:51:835 -> 3373.00
16:26:51:835 -> 3397.00
16:26:51:835 -> 3441.00
16:26:51:835 -> 3421.00
16:26:51:835 -> 3374.00
16:26:51:835 -> 3374.00
16:26:51:835 -> 3419.00
16:26:51:835 -> 3344.00
16:26:51:835 -> 3285.00
16:26:51:835 -> 3318.00
16:26:51:835 -> 3409.00
16:26:51:835 -> 3423.00
16:26:51:835 -> 3429.00
16:26:51:835 -> 3422.00
16:26:51:835 -> 3309.00
16:26:51:835 -> 3403.00
16:26:51:835 -> 3395.00
16:26:51:835 -> 3424.00
16:26:51:835 -> 3418.00
16:26:51:835 -> 3460.00
16:26:51:835 -> 3401.00
16:26:51:835 -> 3329.00
16:26:51:835 -> 3287.00
16:26:51:835 -> 3272.00
16:26:51:835 -> 3320.00
16:26:51:835 -> 3300.00
16:26:51:835 -> 3118.00
16:26:51:835 -> 3061.00
16:26:51:835 -> 3266.00
16:26:51:835 -> 3331.00
16:26:51:835 -> 3162.00
16:26:51:835 -> 3350.00
16:26:51:835 -> 3449.00
16:26:51:871 -> 3509.00
16:26:51:871 -> 3548.00
16:26:51:871 -> 3561.00
16:26:51:871 -> 3467.00
16:26:51:871 -> 3498.00
16:26:51:871 -> 3525.00
16:26:51:871 -> 3546.00
16:26:51:871 -> 3568.00
16:26:51:871 -> 3446.00
16:26:51:871 -> 3493.00
16:26:51:871 -> 3556.00
16:26:51:871 -> 3321.00
16:26:51:871 -> 3343.00
16:26:51:871 -> 3428.00
16:26:51:871 -> 3399.00
16:26:51:871 -> 3325.00
16:26:51:871 -> 3326.00
16:26:51:871 -> 3308.00
16:26:51:871 -> 3289.00
16:26:51:871 -> 3304.00
16:26:51:871 -> 3311.00
16:26:51:871 -> 3425.00
16:26:51:871 -> 3435.00
16:26:51:871 -> 3454.00
16:26:51:871 -> 3577.00
16:26:51:871 -> 3452.00
16:26:51:871 -> 3473.00
16:26:51:871 -> 3461.00
16:26:51:871 -> 3419.00
16:26:51:871 -> 3300.00
16:26:51:897 -> 3395.00
16:26:51:897 -> 3487.00
16:26:51:897 -> 3724.00
16:26:51:897 -> 3498.00
16:26:51:897 -> 3427.00
16:26:51:897 -> 3353.00
16:26:51:897 -> 3367.00
16:26:51:897 -> 3389.00
16:26:51:897 -> 3369.00
16:26:51:897 -> 3398.00
16:26:51:897 -> 3332.00
16:26:51:897 -> 3323.00
16:26:51:897 -> 3436.00
16:26:51:897 -> 3336.00
16:26:51:897 -> 3312.00
16:26:51:897 -> 3334.00
16:26:51:897 -> 3358.00
16:26:51:897 -> 3304.00
16:26:51:897 -> 3344.00
16:26:51:897 -> 3367.00
16:26:51:897 -> 3357.00
16:26:51:897 -> 3410.00
16:26:51:987 -> 3506.00
16:26:51:987 -> 3515.00
16:26:51:987 -> 3492.00
16:26:51:987 -> 3448.00
16:26:51:987 -> 3478.00
16:26:51:987 -> 3469.00
16:26:51:987 -> 3343.00
16:26:51:987 -> 3327.00
16:26:51:987 -> 3369.00
16:26:51:987 -> 3374.00
16:26:51:987 -> 3402.00
16:26:51:987 -> 3365.00
16:26:51:987 -> 3367.00
16:26:51:987 -> 3414.00
16:26:51:987 -> 3613.00
16:26:51:987 -> 3354.00
16:26:51:987 -> 3324.00
16:26:51:987 -> 3368.00
16:26:51:987 -> 3416.00
16:26:51:987 -> 3422.00
16:26:51:987 -> 3311.00
16:26:51:987 -> 3317.00
16:26:51:987 -> 3260.00
16:26:51:987 -> 3253.00
16:26:51:987 -> 3306.00
16:26:51:987 -> 3404.00
16:26:51:987 -> 3407.00
16:26:51:987 -> 3376.00
16:26:51:987 -> 3355.00
16:26:51:987 -> 3315.00
16:26:51:987 -> 3388.00
16:26:51:987 -> 3465.00
16:26:51:987 -> 3291.00
16:26:51:987 -> 3294.00
16:26:51:987 -> 3317.00
16:26:51:987 -> 3248.00
16:26:51:987 -> 3249.00
16:26:51:995 -> 3238.00
16:26:51:995 -> 3355.00
16:26:51:995 -> 3317.00
16:26:51:995 -> 3398.00
16:26:51:995 -> 3616.00
16:26:51:995 -> 3412.00
16:26:51:995 -> 3322.00
16:26:51:995 -> 3338.00
16:26:51:995 -> 3355.00
16:26:51:995 -> 3268.00
16:26:51:995 -> 3386.00
16:26:51:995 -> 3474.00
16:26:51:995 -> 3503.00
16:26:51:995 -> 3515.00
16:26:51:995 -> 3546.00
16:26:51:995 -> 3493.00
16:26:51:995 -> 3614.00
16:26:51:995 -> 3625.00
16:26:51:995 -> 3567.00
16:26:51:995 -> 3462.00
16:26:51:995 -> 3387.00
16:26:51:995 -> 3396.00
16:26:51:995 -> 3387.00
16:26:51:995 -> 3431.00
16:26:51:995 -> 3442.00
16:26:51:995 -> 3431.00
16:26:51:995 -> 3457.00
16:26:51:995 -> 3481.00
16:26:51:995 -> 3419.00
16:26:51:995 -> 3408.00
16:26:51:995 -> 3381.00
16:26:51:995 -> 3434.00
16:26:51:995 -> 3423.00
16:26:51:995 -> 3405.00
16:26:51:995 -> 3429.00
16:26:51:995 -> 3398.00
16:26:51:995 -> 3350.00
16:26:51:995 -> 3340.00
16:26:51:995 -> 3346.00
16:26:51:995 -> 3301.00
16:26:51:995 -> 3410.00
16:26:51:995 -> 3425.00
16:26:51:995 -> 3377.00
16:26:51:995 -> 3438.00
16:26:51:995 -> 3390.00
16:26:52:006 -> 3347.00
16:26:52:006 -> 3334.00
16:26:52:006 -> 3328.00
16:26:52:006 -> 3356.00
16:26:52:006 -> 3400.00
16:26:52:006 -> 3391.00
16:26:52:006 -> 3511.00
16:26:52:006 -> 3600.00
16:26:52:006 -> 3489.00
16:26:52:006 -> 3282.00
16:26:52:013 -> 3230.00
16:26:52:013 -> 3309.00
16:26:52:013 -> 3315.00
16:26:52:013 -> 3503.00
16:26:52:013 -> 3390.00
16:26:52:013 -> 3284.00
16:26:52:039 -> 3183.00
16:26:52:039 -> 3201.00
16:26:52:039 -> 3217.00
16:26:52:039 -> 3253.00
16:26:52:039 -> 3358.00
16:26:52:039 -> 3374.00
16:26:52:039 -> 3676.00
16:26:52:039 -> 3708.00
16:26:52:039 -> 3435.00
16:26:52:039 -> 3475.00
16:26:52:039 -> 3444.00
16:26:52:039 -> 3391.00
16:26:52:039 -> 3442.00
16:26:52:039 -> 3510.00
16:26:52:039 -> 3437.00
16:26:52:039 -> 3407.00
16:26:52:039 -> 3394.00
16:26:52:039 -> 3369.00
16:26:52:039 -> 3342.00
16:26:52:039 -> 3310.00
16:26:52:039 -> 3330.00
16:26:52:045 -> 3478.00
16:26:52:045 -> 3478.00
16:26:52:045 -> 3536.00
16:26:52:045 -> 3534.00
16:26:52:045 -> 3492.00
16:26:52:051 -> 3424.00
16:26:52:051 -> 3426.00
16:26:52:051 -> 3457.00
16:26:52:051 -> 3409.00
16:26:52:051 -> 3411.00
16:26:52:051 -> 3489.00
16:26:52:069 -> 3404.00
16:26:52:069 -> 3407.00
16:26:52:069 -> 3370.00
16:26:52:069 -> 3339.00
16:26:52:069 -> 3387.00
16:26:52:069 -> 3472.00
16:26:52:069 -> 3419.00
16:26:52:069 -> 3296.00
16:26:52:069 -> 3128.00
16:26:52:069 -> 3453.00
16:26:52:069 -> 3567.00
16:26:52:069 -> 3418.00
16:26:52:069 -> 3449.00
16:26:52:069 -> 3487.00
16:26:52:069 -> 3533.00
16:26:52:076 -> 3367.00
16:26:52:076 -> 3467.00
16:26:52:076 -> 3379.00
16:26:52:076 -> 3361.00
16:26:52:076 -> 3381.00
16:26:52:081 -> 3351.00
16:26:52:081 -> 3338.00
16:26:52:081 -> 3309.00
16:26:52:081 -> 3242.00
16:26:52:081 -> 3397.00
16:26:52:084 -> 3418.00
16:26:52:084 -> 3446.00
16:26:52:086 -> 3397.00
16:26:52:086 -> 3352.00
16:26:52:088 -> 3395.00
16:26:52:088 -> 3440.00
16:26:52:103 -> 3463.00
16:26:52:103 -> 3458.00
16:26:52:103 -> 3474.00
16:26:52:103 -> 3477.00
16:26:52:106 -> 3473.00
16:26:52:106 -> 3370.00
16:26:52:106 -> 3375.00
16:26:52:106 -> 3494.00
16:26:52:106 -> 3450.00
16:26:52:106 -> 3390.00
16:26:52:106 -> 3269.00
16:26:52:106 -> 3355.00
16:26:52:106 -> 3387.00
16:26:52:106 -> 3404.00
16:26:52:106 -> 3423.00
16:26:52:115 -> 3497.00
16:26:52:115 -> 3399.00
16:26:52:115 -> 3383.00
16:26:52:115 -> 3350.00
16:26:52:115 -> 3277.00
16:26:52:115 -> 3359.00
16:26:52:115 -> 3418.00
16:26:52:135 -> 3413.00
16:26:52:135 -> 3290.00
16:26:52:135 -> 3383.00
16:26:52:135 -> 3389.00
16:26:52:135 -> 3419.00
16:26:52:135 -> 3298.00
16:26:52:135 -> 3107.00
16:26:52:135 -> 3109.00
16:26:52:135 -> 3122.00
16:26:52:135 -> 3254.00
16:26:52:135 -> 3404.00
16:26:52:135 -> 3421.00
16:26:52:135 -> 3556.00
16:26:52:135 -> 3688.00
16:26:52:135 -> 3738.00
16:26:52:135 -> 3592.00
16:26:52:135 -> 3490.00
16:26:52:139 -> 3491.00
16:26:52:139 -> 3481.00
16:26:52:139 -> 3505.00
16:26:52:139 -> 3460.00
16:26:52:140 -> 3417.00
16:26:52:148 -> 3288.00
16:26:52:148 -> 3265.00
16:26:52:148 -> 3237.00
16:26:52:148 -> 3494.00
16:26:52:148 -> 3618.00
16:26:52:148 -> 3297.00
16:26:52:148 -> 3395.00
16:26:52:165 -> 3438.00
16:26:52:165 -> 3373.00
16:26:52:165 -> 3512.00
16:26:52:165 -> 3562.00
16:26:52:165 -> 3542.00
16:26:52:165 -> 3445.00
16:26:52:165 -> 3396.00
16:26:52:165 -> 3427.00
16:26:52:165 -> 3405.00
16:26:52:165 -> 3412.00
16:26:52:165 -> 3484.00
16:26:52:165 -> 3405.00
16:26:52:165 -> 3307.00
16:26:52:165 -> 3349.00
16:26:52:181 -> 3311.00
16:26:52:181 -> 3291.00
16:26:52:181 -> 3349.00
16:26:52:181 -> 3425.00
16:26:52:181 -> 3339.00
16:26:52:181 -> 3436.00
16:26:52:181 -> 3491.00
16:26:52:181 -> 3496.00
16:26:52:181 -> 3596.00
16:26:52:181 -> 3543.00
16:26:52:181 -> 3447.00
16:26:52:181 -> 3402.00
16:26:52:181 -> 3465.00
16:26:52:204 -> 3361.00
16:26:52:204 -> 3282.00
16:26:52:204 -> 3385.00
16:26:52:204 -> 3439.00
16:26:52:204 -> 3358.00
16:26:52:204 -> 3343.00
16:26:52:204 -> 3455.00
16:26:52:204 -> 3456.00
16:26:52:204 -> 3497.00
16:26:52:204 -> 3577.00
16:26:52:204 -> 3297.00
16:26:52:204 -> 3364.00
16:26:52:204 -> 3393.00
16:26:52:204 -> 3372.00
16:26:52:204 -> 3352.00
16:26:52:204 -> 3402.00
16:26:52:204 -> 3383.00
16:26:52:204 -> 3389.00
16:26:52:204 -> 3422.00
16:26:52:208 -> 3332.00
16:26:52:208 -> 3320.00
16:26:52:208 -> 3301.00
16:26:52:208 -> 3435.00
16:26:52:214 -> 3404.00
16:26:52:214 -> 3424.00
16:26:52:214 -> 3437.00
16:26:52:214 -> 3349.00
16:26:52:214 -> 3404.00
16:26:52:218 -> 3437.00
16:26:52:218 -> 3444.00
16:26:52:218 -> 3434.00
16:26:52:221 -> 3458.00
16:26:52:221 -> 3431.00
16:26:52:231 -> 3369.00
16:26:52:231 -> 3378.00
16:26:52:231 -> 3254.00
16:26:52:231 -> 3238.00
16:26:52:231 -> 3135.00
16:26:52:231 -> 3158.00
16:26:52:231 -> 3268.00
16:26:52:231 -> 3447.00
16:26:52:231 -> 3404.00
16:26:52:234 -> 3497.00
16:26:52:234 -> 3859.00
16:26:52:241 -> 3533.00
16:26:52:241 -> 3408.00
16:26:52:241 -> 3556.00
16:26:52:241 -> 3503.00
16:26:52:241 -> 3561.00
16:26:52:241 -> 3478.00
16:26:52:241 -> 3514.00
16:26:52:244 -> 3457.00
16:26:52:244 -> 3418.00
16:26:52:249 -> 3386.00
16:26:52:249 -> 3436.00
16:26:52:249 -> 3361.00
16:26:52:249 -> 3409.00
16:26:52:252 -> 3355.00
16:26:52:252 -> 3393.00
16:26:52:252 -> 3383.00
16:26:52:255 -> 3419.00
16:26:52:255 -> 3442.00
16:26:52:258 -> 3397.00
16:26:52:258 -> 3435.00
16:26:52:258 -> 3487.00
16:26:52:264 -> 3452.00
16:26:52:264 -> 3451.00
16:26:52:264 -> 3416.00
16:26:52:264 -> 3380.00
16:26:52:264 -> 3328.00
16:26:52:271 -> 3422.00
16:26:52:271 -> 3446.00
16:26:52:271 -> 3290.00
16:26:52:271 -> 3335.00
16:26:52:271 -> 3442.00
16:26:52:273 -> 3389.00
16:26:52:273 -> 3401.00
16:26:52:273 -> 3464.00
16:26:52:278 -> 3502.00
16:26:52:278 -> 3529.00
16:26:52:278 -> 3531.00
16:26:52:285 -> 3476.00
16:26:52:285 -> 3276.00
16:26:52:285 -> 3316.00
16:26:52:285 -> 3480.00
16:26:52:285 -> 3530.00
16:26:52:291 -> 3284.00
16:26:52:291 -> 3285.00
16:26:52:291 -> 3257.00
16:26:52:291 -> 3319.00
16:26:52:291 -> 3372.00
16:26:52:291 -> 3405.00
16:26:52:296 -> 3541.00
16:26:52:296 -> 3368.00
16:26:52:296 -> 3347.00
16:26:52:296 -> 3453.00
16:26:52:305 -> 3456.00
16:26:52:305 -> 3412.00
16:26:52:305 -> 3454.00
16:26:52:305 -> 3464.00
16:26:52:305 -> 3417.00
16:26:52:305 -> 3373.00
16:26:52:305 -> 3354.00
16:26:52:305 -> 3306.00
16:26:52:314 -> 3303.00
16:26:52:314 -> 3292.00
16:26:52:314 -> 3346.00
16:26:52:314 -> 3295.00
16:26:52:314 -> 3371.00
16:26:52:314 -> 3578.00
16:26:52:314 -> 3509.00
16:26:52:316 -> 3526.00
16:26:52:316 -> 3531.00
16:26:52:317 -> 3501.00
16:26:52:320 -> 3450.00
16:26:52:320 -> 3463.00
16:26:52:328 -> 3445.00
16:26:52:328 -> 3417.00
16:26:52:328 -> 3411.00
16:26:52:328 -> 3354.00
16:26:52:328 -> 3375.00
16:26:52:328 -> 3369.00
16:26:52:328 -> 3399.00
16:26:52:334 -> 3282.00
16:26:52:334 -> 3409.00
16:26:52:334 -> 3413.00
16:26:52:334 -> 3220.00
16:26:52:334 -> 3222.00
16:26:52:334 -> 3372.00
16:26:52:350 -> 3682.00
16:26:52:350 -> 3539.00
16:26:52:350 -> 3488.00
16:26:52:350 -> 3507.00
16:26:52:350 -> 3449.00
16:26:52:350 -> 3398.00
16:26:52:350 -> 3348.00
16:26:52:350 -> 3405.00
16:26:52:350 -> 3408.00
16:26:52:350 -> 3476.00
16:26:52:350 -> 3380.00
16:26:52:350 -> 3405.00
16:26:52:350 -> 3428.00
16:26:52:355 -> 3522.00
16:26:52:355 -> 3424.00
16:26:52:355 -> 3448.00
16:26:52:355 -> 3425.00
16:26:52:358 -> 3437.00
16:26:52:358 -> 3451.00
16:26:52:358 -> 3464.00
16:26:52:361 -> 3530.00
16:26:52:361 -> 3435.00
16:26:52:362 -> 3414.00
16:26:52:363 -> 3373.00
16:26:52:364 -> 3416.00
16:26:52:365 -> 3372.00
16:26:52:366 -> 3454.00
16:26:52:368 -> 3382.00
16:26:52:369 -> 3197.00
16:26:52:370 -> 3275.00
16:26:52:371 -> 3254.00
16:26:52:375 -> 3270.00
16:26:52:375 -> 3295.00
16:26:52:375 -> 3386.00
16:26:52:376 -> 3393.00
16:26:52:393 -> 3426.00
16:26:52:393 -> 3508.00
16:26:52:393 -> 3653.00
16:26:52:393 -> 3569.00
16:26:52:393 -> 3450.00
16:26:52:393 -> 3506.00
16:26:52:393 -> 3481.00
16:26:52:393 -> 3287.00
16:26:52:393 -> 3402.00
16:26:52:393 -> 3404.00
16:26:52:393 -> 3424.00
16:26:52:393 -> 3491.00
16:26:52:393 -> 3451.00
16:26:52:393 -> 3393.00
16:26:52:403 -> 3371.00
16:26:52:403 -> 3441.00
16:26:52:403 -> 3358.00
16:26:52:403 -> 3350.00
16:26:52:403 -> 3388.00
16:26:52:403 -> 3489.00
16:26:52:406 -> 3491.00
16:26:52:406 -> 3163.00
16:26:52:406 -> 2943.00
16:26:52:406 -> 3126.00
16:26:52:406 -> 3284.00
16:26:52:407 -> 3355.00
16:26:52:408 -> 3323.00
16:26:52:409 -> 3505.00
16:26:52:411 -> 3716.00
16:26:52:411 -> 3587.00
16:26:52:413 -> 3513.00
16:26:52:414 -> 3552.00
16:26:52:415 -> 3530.00
16:26:52:416 -> 3474.00
16:26:52:417 -> 3462.00
16:26:52:419 -> 3429.00
16:26:52:420 -> 3400.00
16:26:52:421 -> 3435.00
16:26:52:422 -> 3457.00
16:26:52:433 -> 3389.00
16:26:52:444 -> 3463.00
16:26:52:444 -> 3540.00
16:26:52:444 -> 3302.00
16:26:52:444 -> 3372.00
16:26:52:444 -> 3428.00
16:26:52:444 -> 3411.00
16:26:52:444 -> 3435.00
16:26:52:444 -> 3447.00
16:26:52:444 -> 3460.00
16:26:52:444 -> 3481.00
16:26:52:444 -> 3457.00
16:26:52:444 -> 3421.00
16:26:52:444 -> 3468.00
16:26:52:444 -> 3482.00
16:26:52:444 -> 3389.00
16:26:52:444 -> 3421.00
16:26:52:444 -> 3311.00
16:26:52:461 -> 3328.00
16:26:52:461 -> 3324.00
16:26:52:461 -> 3328.00
16:26:52:461 -> 3424.00
16:26:52:461 -> 3451.00
16:26:52:461 -> 3463.00
16:26:52:461 -> 3437.00
16:26:52:461 -> 3445.00
16:26:52:461 -> 3476.00
16:26:52:461 -> 3438.00
16:26:52:461 -> 3423.00
16:26:52:461 -> 3383.00
16:26:52:461 -> 3360.00
16:26:52:461 -> 3377.00
16:26:52:469 -> 3343.00
16:26:52:469 -> 3358.00
16:26:52:469 -> 3331.00
16:26:52:469 -> 3295.00
16:26:52:469 -> 3284.00
16:26:52:469 -> 3321.00
16:26:52:469 -> 3425.00
16:26:52:471 -> 3456.00
16:26:52:471 -> 3411.00
16:26:52:472 -> 3376.00
16:26:52:474 -> 3430.00
16:26:52:475 -> 3464.00
16:26:52:476 -> 3494.00
16:26:52:477 -> 3453.00
16:26:52:513 -> 3460.00
16:26:52:529 -> 3460.00
16:26:52:529 -> 3430.00
16:26:52:529 -> 3374.00
16:26:52:529 -> 3385.00
16:26:52:529 -> 3296.00
16:26:52:529 -> 3364.00
16:26:52:529 -> 3401.00
16:26:52:529 -> 3376.00
16:26:52:529 -> 3358.00
16:26:52:529 -> 3438.00
16:26:52:529 -> 3414.00
16:26:52:529 -> 3473.00
16:26:52:529 -> 3320.00
16:26:52:529 -> 3443.00
16:26:52:529 -> 3517.00
16:26:52:529 -> 3456.00
16:26:52:529 -> 3506.00
16:26:52:529 -> 3521.00
16:26:52:529 -> 3489.00
16:26:52:529 -> 3434.00
16:26:52:529 -> 3400.00
16:26:52:529 -> 3391.00
16:26:52:529 -> 3370.00
16:26:52:529 -> 3480.00
16:26:52:529 -> 3451.00
16:26:52:529 -> 3437.00
16:26:52:529 -> 3419.00
16:26:52:529 -> 3430.00
16:26:52:529 -> 3368.00
16:26:52:529 -> 3396.00
16:26:52:529 -> 3455.00
16:26:52:529 -> 3473.00
16:26:52:529 -> 3370.00
16:26:52:533 -> 3349.00
16:26:52:533 -> 3384.00
16:26:52:533 -> 3338.00
16:26:52:533 -> 3486.00
16:26:52:533 -> 3541.00
16:26:52:533 -> 3452.00
16:26:52:533 -> 3442.00
16:26:52:533 -> 3391.00
16:26:52:533 -> 3400.00
16:26:52:533 -> 3416.00
16:26:52:533 -> 3493.00
16:26:52:533 -> 3384.00
16:26:52:535 -> 3372.00
16:26:52:535 -> 3482.00
16:26:52:535 -> 3549.00
16:26:52:536 -> 3418.00
16:26:52:538 -> 3461.00
16:26:52:539 -> 3416.00
16:26:52:540 -> 3434.00
16:26:52:541 -> 3379.00
16:26:52:542 -> 3394.00
16:26:52:544 -> 3437.00
16:26:52:545 -> 3410.00
16:26:52:546 -> 3541.00
16:26:52:547 -> 3586.00
16:26:52:548 -> 3253.00
16:26:52:549 -> 3264.00
16:26:52:551 -> 3361.00
16:26:52:552 -> 3372.00
16:26:52:553 -> 3274.00
16:26:52:554 -> 3285.00
16:26:52:555 -> 3421.00
16:26:52:557 -> 3384.00
16:26:52:558 -> 3447.00
16:26:52:561 -> 3368.00
16:26:52:561 -> 3338.00
16:26:52:561 -> 3397.00
16:26:52:563 -> 3501.00
16:26:52:564 -> 3458.00
16:26:52:565 -> 3406.00
16:26:52:566 -> 3444.00
16:26:52:567 -> 3439.00
16:26:52:569 -> 3416.00
16:26:52:570 -> 3383.00
16:26:52:571 -> 3427.00
16:26:52:572 -> 3306.00
16:26:52:573 -> 3267.00
16:26:52:575 -> 3246.00
16:26:52:587 -> 3287.00
16:26:52:587 -> 3345.00
16:26:52:587 -> 3400.00
16:26:52:587 -> 3570.00
16:26:52:587 -> 3746.00
16:26:52:587 -> 3659.00
16:26:52:587 -> 3345.00
16:26:52:587 -> 3350.00
16:26:52:587 -> 3397.00
16:26:52:587 -> 3430.00
16:26:52:601 -> 3452.00
16:26:52:601 -> 3450.00
16:26:52:601 -> 3521.00
16:26:52:601 -> 3501.00
16:26:52:601 -> 3473.00
16:26:52:601 -> 3412.00
16:26:52:601 -> 3440.00
16:26:52:601 -> 3475.00
16:26:52:601 -> 3456.00
16:26:52:601 -> 3421.00
16:26:52:601 -> 3480.00
16:26:52:601 -> 3455.00
16:26:52:621 -> 3421.00
16:26:52:621 -> 3407.00
16:26:52:621 -> 3431.00
16:26:52:621 -> 3494.00
16:26:52:621 -> 3354.00
16:26:52:621 -> 3273.00
16:26:52:621 -> 3376.00
16:26:52:621 -> 3460.00
16:26:52:621 -> 3393.00
16:26:52:621 -> 3454.00
16:26:52:621 -> 3381.00
16:26:52:621 -> 3436.00
16:26:52:621 -> 3568.00
16:26:52:621 -> 3393.00
16:26:52:621 -> 3436.00
16:26:52:621 -> 3372.00
16:26:52:645 -> 3335.00
16:26:52:645 -> 3353.00
16:26:52:645 -> 3423.00
16:26:52:645 -> 3434.00
16:26:52:645 -> 3362.00
16:26:52:645 -> 3377.00
16:26:52:645 -> 3498.00
16:26:52:645 -> 3559.00
16:26:52:645 -> 3457.00
16:26:52:645 -> 3474.00
16:26:52:645 -> 3402.00
16:26:52:645 -> 3415.00
16:26:52:645 -> 3473.00
16:26:52:645 -> 3373.00
16:26:52:645 -> 3301.00
16:26:52:645 -> 3203.00
16:26:52:645 -> 3271.00
16:26:52:645 -> 3348.00
16:26:52:645 -> 3285.00
16:26:52:645 -> 3256.00
16:26:52:645 -> 3275.00
16:26:52:662 -> 3319.00
16:26:52:662 -> 3396.00
16:26:52:662 -> 3454.00
16:26:52:662 -> 3526.00
16:26:52:662 -> 3731.00
16:26:52:662 -> 3660.00
16:26:52:662 -> 3450.00
16:26:52:662 -> 3423.00
16:26:52:662 -> 3540.00
16:26:52:662 -> 3408.00
16:26:52:662 -> 3437.00
16:26:52:662 -> 3485.00
16:26:52:662 -> 3414.00
16:26:52:668 -> 3480.00
16:26:52:668 -> 3224.00
16:26:52:668 -> 3204.00
16:26:52:668 -> 3239.00
16:26:52:668 -> 3406.00
16:26:52:668 -> 3519.00
16:26:52:669 -> 3444.00
16:26:52:670 -> 3382.00
16:26:52:671 -> 3513.00
16:26:52:672 -> 3508.00
16:26:52:673 -> 3472.00
16:26:52:675 -> 3521.00
16:26:52:676 -> 3456.00
16:26:52:677 -> 3445.00
16:26:52:678 -> 3534.00
16:26:52:679 -> 3595.00
16:26:52:682 -> 3567.00
16:26:52:682 -> 3445.00
16:26:52:683 -> 3304.00
16:26:52:684 -> 3254.00
16:26:52:685 -> 3406.00
16:26:52:690 -> 3462.00
16:26:52:690 -> 3444.00
16:26:52:690 -> 3474.00
16:26:52:690 -> 3426.00
16:26:52:691 -> 3490.00
16:26:52:692 -> 3420.00
16:26:52:694 -> 3432.00
16:26:52:698 -> 3484.00
16:26:52:698 -> 3405.00
16:26:52:698 -> 3420.00
16:26:52:701 -> 3433.00
16:26:52:701 -> 3390.00
16:26:52:701 -> 3399.00
16:26:52:708 -> 3385.00
16:26:52:708 -> 3245.00
16:26:52:708 -> 3131.00
16:26:52:708 -> 3304.00
16:26:52:708 -> 3468.00
16:26:52:708 -> 3543.00
16:26:52:739 -> 3462.00
16:26:52:739 -> 3498.00
16:26:52:739 -> 3418.00
16:26:52:739 -> 3368.00
16:26:52:739 -> 3517.00
16:26:52:739 -> 3483.00
16:26:52:739 -> 3379.00
16:26:52:739 -> 3536.00
16:26:52:739 -> 3488.00
16:26:52:739 -> 3456.00
16:26:52:739 -> 3399.00
16:26:52:739 -> 3351.00
16:26:52:739 -> 3388.00
16:26:52:739 -> 3307.00
16:26:52:739 -> 3403.00
16:26:52:739 -> 3430.00
16:26:52:739 -> 3277.00
16:26:52:739 -> 3411.00
16:26:52:739 -> 3448.00
16:26:52:739 -> 3514.00
16:26:52:739 -> 3338.00
16:26:52:739 -> 3376.00
16:26:52:739 -> 3484.00
16:26:52:739 -> 3421.00
16:26:52:739 -> 3154.00
16:26:52:739 -> 3144.00
16:26:52:748 -> 3344.00
16:26:52:748 -> 3372.00
16:26:52:748 -> 3439.00
16:26:52:748 -> 3553.00
16:26:52:748 -> 3624.00
16:26:52:748 -> 3524.00
16:26:52:748 -> 3458.00
16:26:52:748 -> 3510.00
16:26:52:756 -> 3540.00
16:26:52:756 -> 3503.00
16:26:52:756 -> 3430.00
16:26:52:756 -> 3301.00
16:26:52:756 -> 3357.00
16:26:52:756 -> 3428.00
16:26:52:777 -> 3452.00
16:26:52:777 -> 3290.00
16:26:52:777 -> 3528.00
16:26:52:777 -> 3434.00
16:26:52:777 -> 3311.00
16:26:52:777 -> 3407.00
16:26:52:777 -> 3619.00
16:26:52:777 -> 3495.00
16:26:52:777 -> 3499.00
16:26:52:777 -> 3537.00
16:26:52:777 -> 3301.00
16:26:52:777 -> 3364.00
16:26:52:777 -> 3497.00
16:26:52:777 -> 3488.00
16:26:52:777 -> 3458.00
16:26:52:777 -> 3506.00
16:26:52:777 -> 3406.00
16:26:52:781 -> 3459.00
16:26:52:781 -> 3492.00
16:26:52:781 -> 3465.00
16:26:52:781 -> 3403.00
16:26:52:809 -> 3362.00
16:26:52:809 -> 3401.00
16:26:52:809 -> 3418.00
16:26:52:809 -> 3450.00
16:26:52:809 -> 3462.00
16:26:52:809 -> 3411.00
16:26:52:809 -> 3253.00
16:26:52:809 -> 3477.00
16:26:52:809 -> 3495.00
16:26:52:836 -> 3429.00
16:26:52:836 -> 3461.00
16:26:52:836 -> 3490.00
16:26:52:836 -> 3497.00
16:26:52:836 -> 3454.00
16:26:52:836 -> 3362.00
16:26:52:836 -> 3492.00
16:26:52:836 -> 3426.00
16:26:52:836 -> 3385.00
16:26:52:836 -> 3397.00
16:26:52:836 -> 3373.00
16:26:52:836 -> 3384.00
16:26:52:836 -> 3414.00
16:26:52:836 -> 3433.00
16:26:52:836 -> 3403.00
16:26:52:836 -> 3350.00
16:26:52:836 -> 3346.00
16:26:52:836 -> 3309.00
16:26:52:836 -> 3367.00
16:26:52:836 -> 3394.00
16:26:52:836 -> 3431.00
16:26:52:836 -> 3430.00
16:26:52:836 -> 3420.00
16:26:52:836 -> 3333.00
16:26:52:836 -> 3424.00
16:26:52:836 -> 3516.00
16:26:52:836 -> 3327.00
16:26:52:836 -> 3219.00
16:26:52:836 -> 3312.00
16:26:52:843 -> 3348.00
16:26:52:843 -> 3406.00
16:26:52:843 -> 3444.00
16:26:52:843 -> 3486.00
16:26:52:843 -> 3291.00
16:26:52:843 -> 3396.00
16:26:52:843 -> 3492.00
16:26:52:843 -> 3511.00
16:26:52:843 -> 3462.00
16:26:52:843 -> 3445.00
16:26:52:843 -> 3456.00
16:26:52:843 -> 3429.00
16:26:52:843 -> 3452.00
16:26:52:843 -> 3419.00
16:26:52:851 -> 3424.00
16:26:52:851 -> 3384.00
16:26:52:851 -> 3379.00
16:26:52:851 -> 3442.00
16:26:52:851 -> 3376.00
16:26:52:851 -> 3403.00
16:26:52:851 -> 3418.00
16:26:52:856 -> 3407.00
16:26:52:856 -> 3413.00
16:26:52:856 -> 3461.00
16:26:52:856 -> 3457.00
16:26:52:861 -> 3406.00
16:26:52:861 -> 3428.00
16:26:52:861 -> 3423.00
16:26:52:861 -> 3402.00
16:26:52:862 -> 3445.00
16:26:52:870 -> 3416.00
16:26:52:870 -> 3412.00
16:26:52:870 -> 3404.00
16:26:52:870 -> 3419.00
16:26:52:870 -> 3375.00
16:26:52:870 -> 3396.00
16:26:52:870 -> 3406.00
16:26:52:874 -> 3397.00
16:26:52:874 -> 3364.00
16:26:52:874 -> 3462.00
16:26:52:878 -> 3469.00
16:26:52:878 -> 3434.00
16:26:52:878 -> 3466.00
16:26:52:878 -> 3627.00
16:26:52:890 -> 3383.00
16:26:52:890 -> 3419.00
16:26:52:890 -> 3395.00
16:26:52:890 -> 3430.00
16:26:52:890 -> 3403.00
16:26:52:890 -> 3399.00
16:26:52:890 -> 3404.00
16:26:52:890 -> 3403.00
16:26:52:890 -> 3419.00
16:26:52:890 -> 3432.00
16:26:52:900 -> 3436.00
16:26:52:900 -> 3438.00
16:26:52:900 -> 3419.00
16:26:52:900 -> 3433.00
16:26:52:900 -> 3439.00
16:26:52:900 -> 3444.00
16:26:52:900 -> 3471.00
16:26:52:900 -> 3463.00
16:26:52:913 -> 3418.00
16:26:52:913 -> 3435.00
16:26:52:913 -> 3423.00
16:26:52:913 -> 3410.00
16:26:52:913 -> 3406.00
16:26:52:913 -> 3385.00
16:26:52:913 -> 3370.00
16:26:52:913 -> 3420.00
16:26:52:913 -> 3423.00
16:26:52:913 -> 3400.00
16:26:52:928 -> 3407.00
16:26:52:928 -> 3399.00
16:26:52:928 -> 3422.00
16:26:52:928 -> 3435.00
16:26:52:928 -> 3430.00
16:26:52:928 -> 3381.00
16:26:52:928 -> 3375.00
16:26:52:928 -> 3388.00
16:26:52:928 -> 3392.00
16:26:52:928 -> 3433.00
16:26:52:928 -> 3417.00
16:26:52:928 -> 3358.00
16:26:52:928 -> 3393.00
16:26:52:928 -> 3411.00
16:26:52:931 -> 3372.00
16:26:52:931 -> 3372.00
16:26:52:932 -> 3369.00
16:26:52:933 -> 3437.00
16:26:52:934 -> 3445.00
16:26:52:935 -> 3472.00
16:26:52:936 -> 3453.00
16:26:52:937 -> 3459.00
16:26:52:939 -> 3437.00
16:26:52:940 -> 3424.00
16:26:52:943 -> 3390.00
16:26:52:943 -> 3412.00
16:26:52:944 -> 3427.00
16:26:52:945 -> 3476.00
16:26:52:946 -> 3431.00
16:26:52:947 -> 3436.00
16:26:52:948 -> 3419.00
16:26:52:949 -> 3430.00
16:26:52:951 -> 3410.00
16:26:52:952 -> 3418.00
16:26:52:953 -> 3432.00
16:26:52:954 -> 3423.00
16:26:52:956 -> 3482.00
16:26:52:957 -> 3442.00
16:26:52:958 -> 3445.00
16:26:52:959 -> 3452.00
16:26:52:960 -> 3456.00
16:26:52:961 -> 3392.00
16:26:52:962 -> 3411.00
16:26:52:964 -> 3410.00
16:26:52:965 -> 3394.00
16:26:52:966 -> 3437.00
16:26:52:967 -> 3426.00
16:26:52:968 -> 3433.00
16:26:52:970 -> 3432.00
16:26:52:971 -> 3426.00
16:26:52:972 -> 3403.00
16:26:52:973 -> 3420.00
16:26:52:974 -> 3441.00
16:26:52:976 -> 3479.00
16:26:52:977 -> 3479.00
16:26:52:978 -> 3446.00
16:26:52:980 -> 3437.00
16:26:53:073 -> 3443.00
16:26:53:073 -> 3406.00
16:26:53:073 -> 3378.00
16:26:53:073 -> 3380.00
16:26:53:073 -> 3365.00
16:26:53:073 -> 3340.00
16:26:53:073 -> 3376.00
16:26:53:073 -> 3403.00
16:26:53:073 -> 3494.00
16:26:53:073 -> 3316.00
16:26:53:073 -> 3405.00
16:26:53:073 -> 3436.00
16:26:53:073 -> 3530.00
16:26:53:073 -> 3479.00
16:26:53:073 -> 3526.00
16:26:53:073 -> 3486.00
16:26:53:073 -> 3466.00
16:26:53:073 -> 3513.00
16:26:53:073 -> 3413.00
16:26:53:073 -> 3427.00
16:26:53:073 -> 3385.00
16:26:53:073 -> 3409.00
16:26:53:073 -> 3420.00
16:26:53:073 -> 3410.00
16:26:53:073 -> 3411.00
16:26:53:073 -> 3420.00
16:26:53:073 -> 3420.00
16:26:53:073 -> 3429.00
16:26:53:073 -> 3459.00
16:26:53:073 -> 3420.00
16:26:53:073 -> 3489.00
16:26:53:073 -> 3447.00
16:26:53:073 -> 3457.00
16:26:53:073 -> 3443.00
16:26:53:073 -> 3434.00
16:26:53:073 -> 3401.00
16:26:53:132 -> 3404.00
16:26:53:132 -> 3403.00
16:26:53:132 -> 3407.00
16:26:53:132 -> 3417.00
16:26:53:132 -> 3418.00
16:26:53:132 -> 3426.00
16:26:53:132 -> 3439.00
16:26:53:132 -> 3461.00
16:26:53:132 -> 3453.00
16:26:53:132 -> 3430.00
16:26:53:132 -> 3476.00
16:26:53:132 -> 3436.00
16:26:53:132 -> 3452.00
16:26:53:132 -> 3444.00
16:26:53:132 -> 3431.00
16:26:53:132 -> 3396.00
16:26:53:132 -> 3410.00
16:26:53:132 -> 3378.00
16:26:53:132 -> 3413.00
16:26:53:132 -> 3377.00
16:26:53:132 -> 3366.00
16:26:53:132 -> 3371.00
16:26:53:132 -> 3379.00
16:26:53:132 -> 3366.00
16:26:53:132 -> 3419.00
16:26:53:132 -> 3461.00
16:26:53:132 -> 3464.00
16:26:53:132 -> 3521.00
16:26:53:132 -> 3514.00
16:26:53:132 -> 3491.00
16:26:53:132 -> 3470.00
16:26:53:132 -> 3446.00
16:26:53:132 -> 3437.00
16:26:53:132 -> 3428.00
16:26:53:132 -> 3386.00
16:26:53:132 -> 3395.00
16:26:53:132 -> 3361.00
16:26:53:132 -> 3413.00
16:26:53:132 -> 3444.00
16:26:53:132 -> 3441.00
16:26:53:132 -> 3442.00
16:26:53:132 -> 3471.00
16:26:53:132 -> 3462.00
16:26:53:132 -> 3444.00
16:26:53:132 -> 3420.00
16:26:53:132 -> 3442.00
16:26:53:132 -> 3457.00
16:26:53:132 -> 3453.00
16:26:53:132 -> 3451.00
16:26:53:132 -> 3431.00
16:26:53:132 -> 3434.00
16:26:53:132 -> 3415.00
16:26:53:132 -> 3426.00
16:26:53:132 -> 3422.00
16:26:53:132 -> 3412.00
16:26:53:132 -> 3429.00
16:26:53:132 -> 3442.00
16:26:53:132 -> 3445.00
16:26:53:132 -> 3446.00
16:26:53:132 -> 3437.00
16:26:53:132 -> 3453.00
16:26:53:132 -> 3440.00
16:26:53:132 -> 3432.00
16:26:53:132 -> 3448.00
16:26:53:132 -> 3410.00
16:26:53:132 -> 3406.00
16:26:53:132 -> 3386.00
16:26:53:132 -> 3394.00
16:26:53:132 -> 3397.00
16:26:53:132 -> 3420.00
16:26:53:132 -> 3395.00
16:26:53:132 -> 3417.00
16:26:53:132 -> 3414.00
16:26:53:132 -> 3452.00
16:26:53:132 -> 3461.00
16:26:53:132 -> 3446.00
16:26:53:132 -> 3430.00
16:26:53:132 -> 3418.00
16:26:53:132 -> 3420.00
16:26:53:132 -> 3474.00
16:26:53:132 -> 3458.00
16:26:53:150 -> 3443.00
16:26:53:150 -> 3454.00
16:26:53:150 -> 3376.00
16:26:53:150 -> 3443.00
16:26:53:150 -> 3460.00
16:26:53:150 -> 3399.00
16:26:53:150 -> 3418.00
16:26:53:150 -> 3431.00
16:26:53:150 -> 3430.00
16:26:53:150 -> 3439.00
16:26:53:150 -> 3412.00
16:26:53:150 -> 3411.00
16:26:53:150 -> 3437.00
16:26:53:150 -> 3464.00
16:26:53:150 -> 3478.00
16:26:53:154 -> 3452.00
16:26:53:154 -> 3441.00
16:26:53:154 -> 3421.00
16:26:53:154 -> 3410.00
16:26:53:154 -> 3407.00
16:26:53:154 -> 3397.00
16:26:53:154 -> 3412.00
16:26:53:154 -> 3382.00
16:26:53:154 -> 3380.00
16:26:53:154 -> 3393.00
16:26:53:154 -> 3396.00
16:26:53:154 -> 3388.00
16:26:53:154 -> 3415.00
16:26:53:154 -> 3399.00
16:26:53:155 -> 3398.00
16:26:53:156 -> 3477.00
16:26:53:158 -> 3492.00
16:26:53:158 -> 3509.00
16:26:53:159 -> 3444.00
16:26:53:160 -> 3477.00
16:26:53:161 -> 3457.00
16:26:53:162 -> 3473.00
16:26:53:164 -> 3443.00
16:26:53:165 -> 3445.00
16:26:53:166 -> 3417.00
16:26:53:167 -> 3425.00
16:26:53:168 -> 3424.00
16:26:53:170 -> 3432.00
16:26:53:171 -> 3420.00
16:26:53:172 -> 3416.00
16:26:53:173 -> 3478.00
16:26:53:174 -> 3470.00
16:26:53:176 -> 3430.00
16:26:53:177 -> 3461.00
16:26:53:178 -> 3457.00
16:26:53:179 -> 3475.00
16:26:53:180 -> 3437.00
16:26:53:182 -> 3436.00
16:26:53:183 -> 3421.00
16:26:53:184 -> 3420.00
16:26:53:185 -> 3391.00
16:26:53:186 -> 3390.00
16:26:53:187 -> 3408.00
16:26:53:189 -> 3395.00
16:26:53:190 -> 3405.00
16:26:53:191 -> 3402.00
16:26:53:192 -> 3440.00
16:26:53:194 -> 3439.00
16:26:53:195 -> 3478.00
16:26:53:196 -> 3409.00
16:26:53:197 -> 3457.00
16:26:53:199 -> 3470.00
16:26:53:200 -> 3462.00
16:26:53:201 -> 3446.00
16:26:53:202 -> 3471.00
16:26:53:203 -> 3430.00
16:26:53:204 -> 3348.00
16:26:53:208 -> 3329.00
16:26:53:211 -> 3351.00
16:26:53:211 -> 3430.00
16:26:53:211 -> 3424.00
16:26:53:212 -> 3411.00
16:26:53:212 -> 3391.00
16:26:53:212 -> 3405.00
16:26:53:214 -> 3357.00
16:26:53:215 -> 3345.00
16:26:53:216 -> 3418.00
16:26:53:217 -> 3397.00
16:26:53:218 -> 3374.00
16:26:53:220 -> 3422.00
16:26:53:221 -> 3503.00
16:26:53:222 -> 3499.00
16:26:53:223 -> 3504.00
16:26:53:224 -> 3424.00
16:26:53:225 -> 3427.00
16:26:53:227 -> 3471.00
16:26:53:228 -> 3468.00
16:26:53:229 -> 3472.00
16:26:53:230 -> 3468.00
16:26:53:232 -> 3489.00
16:26:53:233 -> 3477.00
16:26:53:234 -> 3483.00
16:26:53:235 -> 3493.00
16:26:53:236 -> 3502.00
16:26:53:237 -> 3472.00
16:26:53:239 -> 3471.00
16:26:53:240 -> 3467.00
16:26:53:241 -> 3452.00
16:26:53:242 -> 3435.00
16:26:53:243 -> 3423.00
16:26:53:245 -> 3377.00
16:26:53:246 -> 3406.00
16:26:53:247 -> 3428.00
16:26:53:248 -> 3475.00
16:26:53:249 -> 3457.00
16:26:53:251 -> 3460.00
16:26:53:252 -> 3427.00
16:26:53:253 -> 3424.00
16:26:53:254 -> 3476.00
16:26:53:255 -> 3499.00
16:26:53:257 -> 3477.00
16:26:53:258 -> 3435.00
16:26:53:259 -> 3473.00
16:26:53:260 -> 3464.00
16:26:53:264 -> 3444.00
16:26:53:264 -> 3443.00
16:26:53:264 -> 3424.00
16:26:53:265 -> 3419.00
16:26:53:266 -> 3466.00
16:26:53:267 -> 3438.00
16:26:53:268 -> 3448.00
16:26:53:270 -> 3448.00
16:26:53:271 -> 3460.00
16:26:53:273 -> 3440.00
16:26:53:273 -> 3450.00
16:26:53:289 -> 3457.00
16:26:53:289 -> 3486.00
16:26:53:289 -> 3454.00
16:26:53:289 -> 3489.00
16:26:53:289 -> 3467.00
16:26:53:289 -> 3451.00
16:26:53:289 -> 3450.00
16:26:53:289 -> 3452.00
16:26:53:289 -> 3431.00
16:26:53:289 -> 3495.00
16:26:53:289 -> 3459.00
16:26:53:289 -> 3417.00
16:26:53:294 -> 3423.00
16:26:53:294 -> 3418.00
16:26:53:294 -> 3421.00
16:26:53:294 -> 3388.00
16:26:53:294 -> 3430.00
16:26:53:296 -> 3403.00
16:26:53:296 -> 3385.00
16:26:53:314 -> 3410.00
16:26:53:314 -> 3448.00
16:26:53:314 -> 3420.00
16:26:53:314 -> 3411.00
16:26:53:314 -> 3386.00
16:26:53:314 -> 3369.00
16:26:53:314 -> 3344.00
16:26:53:314 -> 3356.00
16:26:53:314 -> 3399.00
16:26:53:314 -> 3402.00
16:26:53:314 -> 3446.00
16:26:53:314 -> 3467.00
16:26:53:314 -> 3454.00
16:26:53:314 -> 3461.00
16:26:53:315 -> 3501.00
16:26:53:316 -> 3587.00
16:26:53:317 -> 3545.00
16:26:53:317 -> 3514.00
16:26:53:319 -> 3539.00
16:26:53:320 -> 3530.00
16:26:53:321 -> 3528.00
16:26:53:322 -> 3477.00
16:26:53:323 -> 3468.00
16:26:53:324 -> 3413.00
16:26:53:326 -> 3415.00
16:26:53:327 -> 3460.00
16:26:53:328 -> 3465.00
16:26:53:329 -> 3480.00
16:26:53:330 -> 3469.00
16:26:53:331 -> 3492.00
16:26:53:333 -> 3488.00
16:26:53:334 -> 3498.00
16:26:53:335 -> 3430.00
16:26:53:336 -> 3446.00
16:26:53:337 -> 3470.00
16:26:53:339 -> 3485.00
16:26:53:340 -> 3484.00
16:26:53:341 -> 3475.00
16:26:53:342 -> 3478.00
16:26:53:344 -> 3430.00
16:26:53:345 -> 3401.00
16:26:53:346 -> 3382.00
16:26:53:347 -> 3414.00
16:26:53:348 -> 3429.00
16:26:53:349 -> 3442.00
16:26:53:350 -> 3446.00
16:26:53:352 -> 3465.00
16:26:53:359 -> 3497.00
16:26:53:359 -> 3500.00
16:26:53:359 -> 3498.00
16:26:53:359 -> 3458.00
16:26:53:362 -> 3511.00
16:26:53:362 -> 3483.00
16:26:53:362 -> 3466.00
16:26:53:362 -> 3465.00
16:26:53:363 -> 3487.00
16:26:53:364 -> 3470.00
16:26:53:365 -> 3444.00
16:26:53:375 -> 3418.00
16:26:53:375 -> 3423.00
16:26:53:375 -> 3437.00
16:26:53:375 -> 3464.00
16:26:53:375 -> 3476.00
16:26:53:375 -> 3467.00
16:26:53:375 -> 3472.00
16:26:53:375 -> 3477.00
16:26:53:378 -> 3450.00
16:26:53:378 -> 3471.00
16:26:53:379 -> 3467.00
16:26:53:380 -> 3428.00
16:26:53:381 -> 3446.00
16:26:53:382 -> 3446.00
16:26:53:383 -> 3442.00
16:26:53:384 -> 3416.00
16:26:53:385 -> 3415.00
16:26:53:386 -> 3433.00
16:26:53:390 -> 3450.00
16:26:53:390 -> 3453.00
16:26:53:390 -> 3458.00
16:26:53:391 -> 3461.00
16:26:53:392 -> 3474.00
16:26:53:394 -> 3454.00
16:26:53:394 -> 3473.00
16:26:53:396 -> 3487.00
16:26:53:398 -> 3459.00
16:26:53:399 -> 3458.00
16:26:53:414 -> 3446.00
16:26:53:414 -> 3452.00
16:26:53:414 -> 3424.00
16:26:53:414 -> 3414.00
16:26:53:414 -> 3402.00
16:26:53:414 -> 3473.00
16:26:53:414 -> 3478.00
16:26:53:414 -> 3427.00
16:26:53:414 -> 3438.00
16:26:53:414 -> 3461.00
16:26:53:414 -> 3502.00
16:26:53:414 -> 3443.00
16:26:53:414 -> 3433.00
16:26:53:415 -> 3463.00
16:26:53:416 -> 3465.00
16:26:53:417 -> 3495.00
16:26:53:418 -> 3492.00
16:26:53:420 -> 3486.00
16:26:53:421 -> 3496.00
16:26:53:422 -> 3450.00
16:26:53:423 -> 3419.00
16:26:53:424 -> 3402.00
16:26:53:425 -> 3407.00
16:26:53:427 -> 3432.00
16:26:53:428 -> 3467.00
16:26:53:429 -> 3452.00
16:26:53:430 -> 3418.00
16:26:53:431 -> 3396.00
16:26:53:433 -> 3416.00
16:26:53:434 -> 3465.00
16:26:53:435 -> 3487.00
16:26:53:436 -> 3476.00
16:26:53:438 -> 3453.00
16:26:53:442 -> 3469.00
16:26:53:442 -> 3495.00
16:26:53:442 -> 3540.00
16:26:53:443 -> 3501.00
16:26:53:445 -> 3455.00
16:26:53:445 -> 3456.00
16:26:53:446 -> 3502.00
16:26:53:462 -> 3450.00
16:26:53:462 -> 3485.00
16:26:53:462 -> 3477.00
16:26:53:462 -> 3459.00
16:26:53:466 -> 3500.00
16:26:53:466 -> 3488.00
16:26:53:466 -> 3497.00
16:26:53:466 -> 3497.00
16:26:53:466 -> 3485.00
16:26:53:466 -> 3489.00
16:26:53:466 -> 3484.00
16:26:53:466 -> 3468.00
16:26:53:466 -> 3469.00
16:26:53:466 -> 3453.00
16:26:53:466 -> 3454.00
16:26:53:466 -> 3418.00
16:26:53:466 -> 3424.00
16:26:53:467 -> 3460.00
16:26:53:468 -> 3471.00
16:26:53:470 -> 3453.00
16:26:53:471 -> 3473.00
16:26:53:472 -> 3455.00
16:26:53:473 -> 3488.00
16:26:53:474 -> 3468.00
16:26:53:475 -> 3453.00
16:26:53:477 -> 3488.00
16:26:53:478 -> 3498.00
16:26:53:479 -> 3506.00
16:26:53:480 -> 3477.00
16:26:53:481 -> 3465.00
16:26:53:483 -> 3489.00
16:26:53:484 -> 3415.00
16:26:53:486 -> 3404.00
16:26:53:487 -> 3415.00
16:26:53:489 -> 3422.00
16:26:53:489 -> 3459.00
16:26:53:494 -> 3457.00
16:26:53:494 -> 3446.00
16:26:53:494 -> 3442.00
16:26:53:494 -> 3473.00
16:26:53:495 -> 3424.00
16:26:53:496 -> 3461.00
16:26:53:499 -> 3490.00
16:26:53:499 -> 3463.00
16:26:53:499 -> 3471.00
16:26:53:501 -> 3481.00
16:26:53:502 -> 3472.00
16:26:53:503 -> 3465.00
16:26:53:504 -> 3426.00
16:26:53:505 -> 3435.00
16:26:53:507 -> 3406.00
16:26:53:509 -> 3437.00
16:26:53:519 -> 3408.00
16:26:53:519 -> 3400.00
16:26:53:519 -> 3456.00
16:26:53:519 -> 3440.00
16:26:53:519 -> 3471.00
16:26:53:519 -> 3542.00
16:26:53:519 -> 3569.00
16:26:53:519 -> 3498.00
16:26:53:519 -> 3497.00
16:26:53:522 -> 3477.00
16:26:53:522 -> 3463.00
16:26:53:522 -> 3444.00
16:26:53:530 -> 3444.00
16:26:53:530 -> 3445.00
16:26:53:530 -> 3440.00
16:26:53:530 -> 3466.00
16:26:53:530 -> 3428.00
16:26:53:530 -> 3453.00
16:26:53:542 -> 3458.00
16:26:53:542 -> 3476.00
16:26:53:542 -> 3484.00
16:26:53:542 -> 3477.00
16:26:53:542 -> 3512.00
16:26:53:542 -> 3471.00
16:26:53:542 -> 3511.00
16:26:53:542 -> 3491.00
16:26:53:542 -> 3462.00
16:26:53:542 -> 3454.00
16:26:53:562 -> 3457.00
16:26:53:562 -> 3457.00
16:26:53:562 -> 3439.00
16:26:53:562 -> 3402.00
16:26:53:562 -> 3397.00
16:26:53:562 -> 3442.00
16:26:53:562 -> 3440.00
16:26:53:562 -> 3468.00
16:26:53:562 -> 3506.00
16:26:53:562 -> 3509.00
16:26:53:562 -> 3484.00
16:26:53:562 -> 3458.00
16:26:53:562 -> 3437.00
16:26:53:562 -> 3473.00
16:26:53:562 -> 3479.00
16:26:53:565 -> 3461.00
16:26:53:565 -> 3481.00
16:26:53:565 -> 3463.00
16:26:53:565 -> 3455.00
16:26:53:571 -> 3419.00
16:26:53:571 -> 3380.00
16:26:53:571 -> 3444.00
16:26:53:571 -> 3463.00
16:26:53:571 -> 3463.00
16:26:53:571 -> 3472.00
16:26:53:676 -> 3461.00
16:26:53:676 -> 3456.00
16:26:53:676 -> 3463.00
16:26:53:676 -> 3464.00
16:26:53:676 -> 3490.00
16:26:53:676 -> 3476.00
16:26:53:676 -> 3479.00
16:26:53:676 -> 3478.00
16:26:53:676 -> 3449.00
16:26:53:709 -> 3446.00
16:26:53:709 -> 3421.00
16:26:53:709 -> 3406.00
16:26:53:709 -> 3479.00
16:26:53:709 -> 3433.00
16:26:53:709 -> 3444.00
16:26:53:709 -> 3429.00
16:26:53:709 -> 3423.00
16:26:53:709 -> 3419.00
16:26:53:709 -> 3415.00
16:26:53:709 -> 3444.00
16:26:53:709 -> 3464.00
16:26:53:709 -> 3455.00
16:26:53:709 -> 3487.00
16:26:53:709 -> 3465.00
16:26:53:709 -> 3453.00
16:26:53:709 -> 3468.00
16:26:53:709 -> 3482.00
16:26:53:709 -> 3462.00
16:26:53:709 -> 3417.00
16:26:53:709 -> 3392.00
16:26:53:709 -> 3444.00
16:26:53:709 -> 3463.00
16:26:53:709 -> 3448.00
16:26:53:709 -> 3437.00
16:26:53:709 -> 3436.00
16:26:53:709 -> 3436.00
16:26:53:709 -> 3503.00
16:26:53:709 -> 3525.00
16:26:53:709 -> 3486.00
16:26:53:709 -> 3488.00
16:26:53:709 -> 3465.00
16:26:53:709 -> 3489.00
16:26:53:709 -> 3450.00
16:26:53:709 -> 3430.00
16:26:53:709 -> 3447.00
16:26:53:709 -> 3454.00
16:26:53:709 -> 3453.00
16:26:53:709 -> 3442.00
16:26:53:709 -> 3455.00
16:26:53:709 -> 3452.00
16:26:53:709 -> 3426.00
16:26:53:709 -> 3421.00
16:26:53:709 -> 3425.00
16:26:53:709 -> 3457.00
16:26:53:709 -> 3459.00
16:26:53:709 -> 3476.00
16:26:53:709 -> 3476.00
16:26:53:709 -> 3503.00
16:26:53:709 -> 3502.00
16:26:53:709 -> 3498.00
16:26:53:709 -> 3453.00
16:26:53:709 -> 3425.00
16:26:53:709 -> 3430.00
16:26:53:709 -> 3448.00
16:26:53:709 -> 3441.00
16:26:53:709 -> 3462.00
16:26:53:709 -> 3443.00
16:26:53:709 -> 3443.00
16:26:53:709 -> 3462.00
16:26:53:709 -> 3439.00
16:26:53:709 -> 3469.00
16:26:53:709 -> 3471.00
16:26:53:709 -> 3539.00
16:26:53:709 -> 3528.00
16:26:53:709 -> 3501.00
16:26:53:709 -> 3481.00
16:26:53:709 -> 3487.00
16:26:53:709 -> 3477.00
16:26:53:709 -> 3456.00
16:26:53:709 -> 3461.00
16:26:53:709 -> 3457.00
16:26:53:709 -> 3464.00
16:26:53:709 -> 3459.00
16:26:53:709 -> 3403.00
16:26:53:709 -> 3441.00
16:26:53:709 -> 3469.00
16:26:53:709 -> 3465.00
16:26:53:709 -> 3422.00
16:26:53:709 -> 3426.00
16:26:53:709 -> 3416.00
16:26:53:709 -> 3413.00
16:26:53:709 -> 3415.00
16:26:53:709 -> 3446.00
16:26:53:709 -> 3436.00
16:26:53:709 -> 3419.00
16:26:53:709 -> 3453.00
16:26:53:709 -> 3494.00
16:26:53:709 -> 3463.00
16:26:53:709 -> 3458.00
16:26:53:709 -> 3462.00
16:26:53:709 -> 3465.00
16:26:53:709 -> 3522.00
16:26:53:709 -> 3513.00
16:26:53:709 -> 3467.00
16:26:53:709 -> 3468.00
16:26:53:709 -> 3520.00
16:26:53:709 -> 3510.00
16:26:53:709 -> 3508.00
16:26:53:709 -> 3492.00
16:26:53:709 -> 3488.00
16:26:53:709 -> 3457.00
16:26:53:709 -> 3435.00
16:26:53:709 -> 3411.00
16:26:53:709 -> 3453.00
16:26:53:709 -> 3432.00
16:26:53:709 -> 3447.00
16:26:53:738 -> 3461.00
16:26:53:738 -> 3443.00
16:26:53:738 -> 3455.00
16:26:53:738 -> 3478.00
16:26:53:738 -> 3490.00
16:26:53:738 -> 3496.00
16:26:53:738 -> 3504.00
16:26:53:738 -> 3462.00
16:26:53:738 -> 3488.00
16:26:53:738 -> 3511.00
16:26:53:738 -> 3473.00
16:26:53:738 -> 3440.00
16:26:53:738 -> 3403.00
16:26:53:738 -> 3429.00
16:26:53:738 -> 3445.00
16:26:53:738 -> 3446.00
16:26:53:738 -> 3445.00
16:26:53:738 -> 3457.00
16:26:53:738 -> 3419.00
16:26:53:738 -> 3432.00
16:26:53:738 -> 3460.00
16:26:53:738 -> 3497.00
16:26:53:738 -> 3525.00
16:26:53:738 -> 3461.00
16:26:53:795 -> 3502.00
16:26:53:795 -> 3473.00
16:26:53:795 -> 3493.00
16:26:53:795 -> 3499.00
16:26:53:795 -> 3469.00
16:26:53:795 -> 3434.00
16:26:53:795 -> 3423.00
16:26:53:795 -> 3454.00
16:26:53:795 -> 3435.00
16:26:53:795 -> 3473.00
16:26:53:795 -> 3448.00
16:26:53:795 -> 3446.00
16:26:53:795 -> 3472.00
16:26:53:795 -> 3480.00
16:26:53:795 -> 3455.00
16:26:53:795 -> 3450.00
16:26:53:795 -> 3467.00
16:26:53:795 -> 3460.00
16:26:53:795 -> 3463.00
16:26:53:795 -> 3465.00
16:26:53:795 -> 3446.00
16:26:53:795 -> 3422.00
16:26:53:795 -> 3386.00
16:26:53:795 -> 3411.00
16:26:53:795 -> 3437.00
16:26:53:795 -> 3463.00
16:26:53:795 -> 3471.00
16:26:53:795 -> 3481.00
16:26:53:795 -> 3442.00
16:26:53:795 -> 3476.00
16:26:53:795 -> 3516.00
16:26:53:795 -> 3458.00
16:26:53:795 -> 3459.00
16:26:53:795 -> 3485.00
16:26:53:795 -> 3489.00
16:26:53:795 -> 3483.00
16:26:53:795 -> 3465.00
16:26:53:795 -> 3494.00
16:26:53:795 -> 3426.00
16:26:53:795 -> 3438.00
16:26:53:838 -> 3441.00
16:26:53:838 -> 3400.00
16:26:53:838 -> 3409.00
16:26:53:838 -> 3446.00
16:26:53:838 -> 3462.00
16:26:53:838 -> 3454.00
16:26:53:838 -> 3455.00
16:26:53:838 -> 3514.00
16:26:53:838 -> 3531.00
16:26:53:838 -> 3471.00
16:26:53:838 -> 3501.00
16:26:53:838 -> 3500.00
16:26:53:838 -> 3485.00
16:26:53:838 -> 3479.00
16:26:53:838 -> 3472.00
16:26:53:838 -> 3454.00
16:26:53:838 -> 3479.00
16:26:53:838 -> 3473.00
16:26:53:838 -> 3447.00
16:26:53:838 -> 3464.00
16:26:53:838 -> 3471.00
16:26:53:838 -> 3475.00
16:26:53:838 -> 3489.00
16:26:53:838 -> 3489.00
16:26:53:838 -> 3497.00
16:26:53:838 -> 3525.00
16:26:53:838 -> 3496.00
16:26:53:838 -> 3501.00
16:26:53:838 -> 3471.00
16:26:53:838 -> 3456.00
16:26:53:838 -> 3462.00
16:26:53:838 -> 3458.00
16:26:53:838 -> 3442.00
16:26:53:838 -> 3431.00
16:26:53:838 -> 3441.00
16:26:53:838 -> 3445.00
16:26:53:838 -> 3474.00
16:26:53:838 -> 3462.00
16:26:53:838 -> 3440.00
16:26:53:838 -> 3455.00
16:26:53:838 -> 3472.00
16:26:53:838 -> 3461.00
16:26:53:838 -> 3531.00
16:26:53:844 -> 3482.00
16:26:53:844 -> 3484.00
16:26:53:844 -> 3463.00
16:26:53:844 -> 3480.00
16:26:53:844 -> 3462.00
16:26:53:844 -> 3470.00
16:26:53:854 -> 3412.00
16:26:53:854 -> 3486.00
16:26:53:854 -> 3446.00
16:26:53:854 -> 3481.00
16:26:53:854 -> 3455.00
16:26:53:854 -> 3458.00
16:26:53:854 -> 3502.00
16:26:53:854 -> 3500.00
16:26:53:855 -> 3500.00
16:26:53:855 -> 3522.00
16:26:53:861 -> 3504.00
16:26:53:861 -> 3502.00
16:26:53:861 -> 3496.00
16:26:53:861 -> 3436.00
16:26:53:864 -> 3466.00
16:26:53:864 -> 3436.00
16:26:53:864 -> 3428.00
16:26:53:868 -> 3426.00
16:26:53:868 -> 3419.00
16:26:53:868 -> 3429.00
16:26:53:868 -> 3429.00
16:26:53:882 -> 3378.00
16:26:53:882 -> 3397.00
16:26:53:882 -> 3382.00
16:26:53:882 -> 3364.00
16:26:53:882 -> 3349.00
16:26:53:882 -> 3447.00
16:26:53:882 -> 3485.00
16:26:53:882 -> 3576.00
16:26:53:882 -> 3532.00
16:26:53:882 -> 3539.00
16:26:53:882 -> 3515.00
16:26:53:885 -> 3491.00
16:26:53:885 -> 3507.00
16:26:53:889 -> 3488.00
16:26:53:889 -> 3487.00
16:26:53:889 -> 3469.00
16:26:53:892 -> 3473.00
16:26:53:892 -> 3477.00
16:26:53:892 -> 3485.00
16:26:53:892 -> 3441.00
16:26:53:903 -> 3473.00
16:26:53:903 -> 3467.00
16:26:53:903 -> 3471.00
16:26:53:903 -> 3508.00
16:26:53:903 -> 3504.00
16:26:53:903 -> 3492.00
16:26:53:903 -> 3486.00
16:26:53:903 -> 3458.00
16:26:53:903 -> 3440.00
16:26:53:911 -> 3432.00
16:26:53:911 -> 3437.00
16:26:53:911 -> 3430.00
16:26:53:911 -> 3457.00
16:26:53:911 -> 3465.00
16:26:53:911 -> 3481.00
16:26:53:911 -> 3468.00
16:26:53:924 -> 3521.00
16:26:53:924 -> 3530.00
16:26:53:924 -> 3524.00
16:26:53:924 -> 3509.00
16:26:53:924 -> 3515.00
16:26:53:924 -> 3507.00
16:26:53:924 -> 3488.00
16:26:53:924 -> 3479.00
16:26:53:924 -> 3481.00
16:26:53:924 -> 3479.00
16:26:53:924 -> 3478.00
16:26:53:927 -> 3433.00
16:26:53:927 -> 3460.00
16:26:53:928 -> 3473.00
16:26:53:931 -> 3484.00
16:26:53:931 -> 3484.00
16:26:53:932 -> 3519.00
16:26:53:938 -> 3502.00
16:26:53:938 -> 3492.00
16:26:53:938 -> 3481.00
16:26:53:938 -> 3485.00
16:26:53:938 -> 3506.00
16:26:53:944 -> 3481.00
16:26:53:944 -> 3503.00
16:26:53:944 -> 3477.00
16:26:53:944 -> 3485.00
16:26:53:944 -> 3449.00
16:26:53:954 -> 3419.00
16:26:53:954 -> 3368.00
16:26:53:954 -> 3435.00
16:26:53:954 -> 3426.00
16:26:53:954 -> 3441.00
16:26:53:954 -> 3457.00
16:26:53:961 -> 3467.00
16:26:53:961 -> 3448.00
16:26:53:961 -> 3454.00
16:26:53:961 -> 3482.00
16:26:53:961 -> 3539.00
16:26:53:961 -> 3494.00
16:26:53:961 -> 3473.00
16:26:53:964 -> 3468.00
16:26:53:964 -> 3479.00
16:26:53:964 -> 3445.00
16:26:53:964 -> 3477.00
16:26:53:966 -> 3467.00
16:26:53:966 -> 3468.00
16:26:53:967 -> 3452.00
16:26:53:968 -> 3448.00
16:26:53:971 -> 3457.00
16:26:53:971 -> 3454.00
16:26:53:991 -> 3500.00
16:26:53:991 -> 3470.00
16:26:53:991 -> 3478.00
16:26:53:991 -> 3510.00
16:26:53:991 -> 3512.00
16:26:53:991 -> 3480.00
16:26:53:991 -> 3486.00
16:26:53:991 -> 3468.00
16:26:53:991 -> 3464.00
16:26:53:991 -> 3466.00
16:26:53:991 -> 3452.00
16:26:53:991 -> 3458.00
16:26:53:991 -> 3463.00
16:26:53:991 -> 3450.00
16:26:53:991 -> 3478.00
16:26:53:991 -> 3509.00
16:26:54:000 -> 3481.00
16:26:54:000 -> 3478.00
16:26:54:000 -> 3503.00
16:26:54:000 -> 3513.00
16:26:54:000 -> 3520.00
16:26:54:000 -> 3511.00
16:26:54:000 -> 3506.00
16:26:54:000 -> 3518.00
16:26:54:004 -> 3512.00
16:26:54:004 -> 3489.00
16:26:54:004 -> 3489.00
16:26:54:004 -> 3485.00
16:26:54:021 -> 3431.00
16:26:54:021 -> 3415.00
16:26:54:021 -> 3448.00
16:26:54:021 -> 3453.00
16:26:54:021 -> 3489.00
16:26:54:021 -> 3481.00
16:26:54:021 -> 3490.00
16:26:54:021 -> 3487.00
16:26:54:021 -> 3504.00
16:26:54:021 -> 3502.00
16:26:54:021 -> 3496.00
16:26:54:021 -> 3488.00
16:26:54:021 -> 3469.00
16:26:54:021 -> 3427.00
16:26:54:031 -> 3469.00
16:26:54:031 -> 3467.00
16:26:54:031 -> 3460.00
16:26:54:031 -> 3422.00
16:26:54:031 -> 3436.00
16:26:54:031 -> 3464.00
16:26:54:031 -> 3478.00
16:26:54:031 -> 3477.00
16:26:54:054 -> 3514.00
16:26:54:054 -> 3503.00
16:26:54:054 -> 3484.00
16:26:54:054 -> 3468.00
16:26:54:054 -> 3452.00
16:26:54:054 -> 3460.00
16:26:54:054 -> 3501.00
16:26:54:054 -> 3495.00
16:26:54:054 -> 3501.00
16:26:54:054 -> 3492.00
16:26:54:054 -> 3438.00
16:26:54:054 -> 3388.00
16:26:54:054 -> 3405.00
16:26:54:054 -> 3462.00
16:26:54:054 -> 3482.00
16:26:54:054 -> 3465.00
16:26:54:054 -> 3481.00
16:26:54:054 -> 3444.00
16:26:54:054 -> 3438.00
16:26:54:054 -> 3463.00
16:26:54:067 -> 3425.00
16:26:54:067 -> 3474.00
16:26:54:067 -> 3479.00
16:26:54:067 -> 3473.00
16:26:54:067 -> 3458.00
16:26:54:067 -> 3441.00
16:26:54:067 -> 3472.00
16:26:54:067 -> 3468.00
16:26:54:067 -> 3402.00
16:26:54:067 -> 3413.00
16:26:54:067 -> 3432.00
16:26:54:078 -> 3450.00
16:26:54:078 -> 3459.00
16:26:54:078 -> 3472.00
16:26:54:078 -> 3515.00
16:26:54:078 -> 3510.00
16:26:54:078 -> 3491.00
16:26:54:078 -> 3474.00
16:26:54:078 -> 3472.00
16:26:54:078 -> 3500.00
16:26:54:092 -> 3512.00
16:26:54:092 -> 3499.00
16:26:54:092 -> 3499.00
16:26:54:092 -> 3495.00
16:26:54:092 -> 3524.00
16:26:54:092 -> 3426.00
16:26:54:092 -> 3433.00
16:26:54:092 -> 3431.00
16:26:54:092 -> 3448.00
16:26:54:092 -> 3454.00
16:26:54:092 -> 3468.00
16:26:54:092 -> 3425.00
16:26:54:110 -> 3461.00
16:26:54:110 -> 3475.00
16:26:54:110 -> 3501.00
16:26:54:110 -> 3450.00
16:26:54:110 -> 3482.00
16:26:54:110 -> 3468.00
16:26:54:110 -> 3457.00
16:26:54:110 -> 3455.00
16:26:54:110 -> 3465.00
16:26:54:110 -> 3465.00
16:26:54:110 -> 3506.00
16:26:54:110 -> 3461.00
16:26:54:110 -> 3483.00
16:26:54:110 -> 3468.00
16:26:54:110 -> 3482.00
16:26:54:118 -> 3521.00
16:26:54:118 -> 3484.00
16:26:54:118 -> 3470.00
16:26:54:118 -> 3490.00
16:26:54:118 -> 3502.00
16:26:54:118 -> 3509.00
16:26:54:118 -> 3483.00
16:26:54:120 -> 3484.00
16:26:54:121 -> 3487.00
16:26:54:122 -> 3515.00
16:26:54:123 -> 3485.00
16:26:54:124 -> 3479.00
16:26:54:125 -> 3421.00
16:26:54:127 -> 3421.00
16:26:54:128 -> 3449.00
16:26:54:129 -> 3443.00
16:26:54:131 -> 3469.00
16:26:54:137 -> 3443.00
16:26:54:137 -> 3450.00
16:26:54:137 -> 3487.00
16:26:54:137 -> 3530.00
16:26:54:137 -> 3527.00
16:26:54:142 -> 3504.00
16:26:54:142 -> 3504.00
16:26:54:142 -> 3480.00
16:26:54:145 -> 3477.00
16:26:54:145 -> 3483.00
16:26:54:145 -> 3461.00
16:26:54:145 -> 3430.00
16:26:54:162 -> 3454.00
16:26:54:162 -> 3447.00
16:26:54:162 -> 3464.00
16:26:54:162 -> 3462.00
16:26:54:162 -> 3524.00
16:26:54:162 -> 3468.00
16:26:54:162 -> 3470.00
16:26:54:162 -> 3496.00
16:26:54:162 -> 3505.00
16:26:54:162 -> 3504.00
16:26:54:162 -> 3493.00
16:26:54:162 -> 3515.00
16:26:54:162 -> 3492.00
16:26:54:162 -> 3486.00
16:26:54:162 -> 3477.00
16:26:54:164 -> 3457.00
16:26:54:165 -> 3442.00
16:26:54:166 -> 3445.00
16:26:54:167 -> 3444.00
16:26:54:168 -> 3459.00
16:26:54:169 -> 3479.00
16:26:54:171 -> 3476.00
16:26:54:172 -> 3472.00
16:26:54:173 -> 3494.00
16:26:54:174 -> 3491.00
16:26:54:175 -> 3490.00
16:26:54:201 -> 3517.00
16:26:54:201 -> 3514.00
16:26:54:201 -> 3482.00
16:26:54:201 -> 3478.00
16:26:54:201 -> 3468.00
16:26:54:201 -> 3464.00
16:26:54:201 -> 3404.00
16:26:54:201 -> 3335.00
16:26:54:201 -> 3392.00
16:26:54:201 -> 3440.00
16:26:54:201 -> 3449.00
16:26:54:201 -> 3469.00
16:26:54:201 -> 3484.00
16:26:54:201 -> 3496.00
16:26:54:201 -> 3492.00
16:26:54:202 -> 3539.00
16:26:54:202 -> 3518.00
16:26:54:202 -> 3486.00
16:26:54:202 -> 3495.00
16:26:54:202 -> 3488.00
16:26:54:202 -> 3490.00
16:26:54:202 -> 3465.00
16:26:54:203 -> 3500.00
16:26:54:204 -> 3435.00
16:26:54:205 -> 3456.00
16:26:54:206 -> 3458.00
16:26:54:207 -> 3460.00
16:26:54:209 -> 3454.00
16:26:54:210 -> 3468.00
16:26:54:211 -> 3481.00
16:26:54:212 -> 3486.00
16:26:54:213 -> 3467.00
16:26:54:215 -> 3502.00
16:26:54:216 -> 3476.00
16:26:54:217 -> 3499.00
16:26:54:218 -> 3496.00
16:26:54:219 -> 3486.00
16:26:54:221 -> 3476.00
16:26:54:222 -> 3485.00
16:26:54:223 -> 3461.00
16:26:54:230 -> 3430.00
16:26:54:230 -> 3431.00
16:26:54:230 -> 3437.00
16:26:54:230 -> 3477.00
16:26:54:230 -> 3473.00
16:26:54:230 -> 3477.00
16:26:54:239 -> 3470.00
16:26:54:239 -> 3444.00
16:26:54:239 -> 3467.00
16:26:54:239 -> 3497.00
16:26:54:239 -> 3531.00
16:26:54:239 -> 3495.00
16:26:54:247 -> 3511.00
16:26:54:247 -> 3502.00
16:26:54:247 -> 3476.00
16:26:54:247 -> 3475.00
16:26:54:247 -> 3477.00
16:26:54:247 -> 3442.00
16:26:54:247 -> 3447.00
16:26:54:247 -> 3429.00
16:26:54:248 -> 3452.00
16:26:54:249 -> 3453.00
16:26:54:254 -> 3462.00
16:26:54:254 -> 3447.00
16:26:54:254 -> 3436.00
16:26:54:256 -> 3465.00
16:26:54:256 -> 3516.00
16:26:54:258 -> 3534.00
16:26:54:258 -> 3492.00
16:26:54:266 -> 3496.00
16:26:54:266 -> 3484.00
16:26:54:266 -> 3474.00
16:26:54:266 -> 3445.00
16:26:54:266 -> 3436.00
16:26:54:266 -> 3443.00
16:26:54:270 -> 3449.00
16:26:54:270 -> 3453.00
16:26:54:270 -> 3453.00
16:26:54:270 -> 3477.00
16:26:54:271 -> 3472.00
16:26:54:273 -> 3456.00
16:26:54:273 -> 3487.00
16:26:54:275 -> 3505.00
16:26:54:276 -> 3540.00
16:26:54:277 -> 3515.00
16:26:54:278 -> 3491.00
16:26:54:279 -> 3491.00
16:26:54:280 -> 3483.00
16:26:54:281 -> 3482.00
16:26:54:282 -> 3464.00
16:26:54:284 -> 3439.00
16:26:54:285 -> 3387.00
16:26:54:286 -> 3388.00
16:26:54:287 -> 3422.00
16:26:54:288 -> 3397.00
16:26:54:290 -> 3417.00
16:26:54:291 -> 3415.00
16:26:54:292 -> 3468.00
16:26:54:293 -> 3472.00
16:26:54:294 -> 3489.00
16:26:54:299 -> 3467.00
16:26:54:299 -> 3528.00
16:26:54:299 -> 3527.00
16:26:54:313 -> 3480.00
16:26:54:317 -> 3483.00
16:26:54:317 -> 3465.00
16:26:54:317 -> 3472.00
16:26:54:317 -> 3442.00
16:26:54:317 -> 3413.00
16:26:54:317 -> 3456.00
16:26:54:317 -> 3456.00
16:26:54:317 -> 3481.00
16:26:54:317 -> 3494.00
16:26:54:317 -> 3469.00
16:26:54:317 -> 3480.00
16:26:54:317 -> 3484.00
16:26:54:317 -> 3549.00
16:26:54:317 -> 3515.00
16:26:54:317 -> 3533.00
16:26:54:324 -> 3484.00
16:26:54:324 -> 3525.00
16:26:54:324 -> 3499.00
16:26:54:324 -> 3505.00
16:26:54:324 -> 3452.00
16:26:54:335 -> 3431.00
16:26:54:335 -> 3456.00
16:26:54:335 -> 3450.00
16:26:54:335 -> 3476.00
16:26:54:335 -> 3450.00
16:26:54:335 -> 3466.00
16:26:54:335 -> 3473.00
16:26:54:335 -> 3489.00
16:26:54:335 -> 3468.00
16:26:54:335 -> 3512.00
16:26:54:338 -> 3504.00
16:26:54:338 -> 3493.00
16:26:54:342 -> 3499.00
16:26:54:342 -> 3476.00
16:26:54:342 -> 3486.00
16:26:54:343 -> 3461.00
16:26:54:343 -> 3478.00
16:26:54:345 -> 3474.00
16:26:54:346 -> 3407.00
16:26:54:347 -> 3410.00
16:26:54:348 -> 3440.00
16:26:54:349 -> 3473.00
16:26:54:350 -> 3469.00
16:26:54:351 -> 3476.00
16:26:54:353 -> 3453.00
16:26:54:354 -> 3436.00
16:26:54:356 -> 3506.00
16:26:54:357 -> 3528.00
16:26:54:357 -> 3491.00
16:26:54:359 -> 3497.00
16:26:54:360 -> 3484.00
16:26:54:361 -> 3463.00
16:26:54:362 -> 3479.00
16:26:54:363 -> 3471.00
16:26:54:365 -> 3437.00
16:26:54:366 -> 3419.00
16:26:54:367 -> 3463.00
16:26:54:368 -> 3481.00
16:26:54:369 -> 3453.00
16:26:54:371 -> 3471.00
16:26:54:372 -> 3481.00
16:26:54:373 -> 3484.00
16:26:54:374 -> 3460.00
16:26:54:375 -> 3485.00
16:26:54:376 -> 3458.00
16:26:54:378 -> 3499.00
16:26:54:379 -> 3482.00
16:26:54:380 -> 3465.00
16:26:54:381 -> 3393.00
16:26:54:382 -> 3383.00
16:26:54:384 -> 3413.00
16:26:54:385 -> 3425.00
16:26:54:386 -> 3458.00
16:26:54:387 -> 3467.00
16:26:54:388 -> 3439.00
16:26:54:390 -> 3451.00
16:26:54:391 -> 3451.00
16:26:54:395 -> 3442.00
16:26:54:395 -> 3447.00
16:26:54:395 -> 3461.00
16:26:54:396 -> 3498.00
16:26:54:397 -> 3509.00
16:26:54:400 -> 3515.00
16:26:54:400 -> 3529.00
16:26:54:402 -> 3504.00
16:26:54:402 -> 3481.00
16:26:54:404 -> 3483.00
16:26:54:404 -> 3472.00
16:26:54:405 -> 3473.00
16:26:54:406 -> 3414.00
16:26:54:410 -> 3490.00
16:26:54:410 -> 3479.00
16:26:54:415 -> 3464.00
16:26:54:415 -> 3462.00
16:26:54:415 -> 3448.00
16:26:54:415 -> 3443.00
16:26:54:418 -> 3462.00
16:26:54:418 -> 3487.00
16:26:54:418 -> 3496.00
16:26:54:418 -> 3480.00
16:26:54:421 -> 3469.00
16:26:54:421 -> 3507.00
16:26:54:422 -> 3478.00
16:26:54:424 -> 3458.00
16:26:54:426 -> 3435.00
16:26:54:427 -> 3397.00
16:26:54:427 -> 3467.00
16:26:54:428 -> 3455.00
16:26:54:429 -> 3460.00
16:26:54:430 -> 3484.00
16:26:54:431 -> 3471.00
16:26:54:432 -> 3496.00
16:26:54:434 -> 3506.00
16:26:54:435 -> 3514.00
16:26:54:436 -> 3539.00
16:26:54:437 -> 3497.00
16:26:54:439 -> 3504.00
16:26:54:440 -> 3502.00
16:26:54:441 -> 3493.00
16:26:54:442 -> 3462.00
16:26:54:443 -> 3444.00
16:26:54:444 -> 3407.00
16:26:54:459 -> 3447.00
16:26:54:459 -> 3426.00
16:26:54:459 -> 3467.00
16:26:54:459 -> 3456.00
16:26:54:459 -> 3473.00
16:26:54:459 -> 3451.00
16:26:54:459 -> 3489.00
16:26:54:459 -> 3469.00
16:26:54:459 -> 3531.00
16:26:54:459 -> 3499.00
16:26:54:459 -> 3485.00
16:26:54:459 -> 3489.00
16:26:54:466 -> 3478.00
16:26:54:466 -> 3457.00
16:26:54:466 -> 3450.00
16:26:54:466 -> 3443.00
16:26:54:466 -> 3423.00
16:26:54:466 -> 3453.00
16:26:54:474 -> 3438.00
16:26:54:474 -> 3431.00
16:26:54:474 -> 3448.00
16:26:54:474 -> 3467.00
16:26:54:474 -> 3473.00
16:26:54:474 -> 3491.00
16:26:54:480 -> 3481.00
16:26:54:480 -> 3521.00
16:26:54:480 -> 3517.00
16:26:54:480 -> 3481.00
16:26:54:480 -> 3481.00
16:26:54:484 -> 3471.00
16:26:54:484 -> 3445.00
16:26:54:484 -> 3407.00
16:26:54:484 -> 3382.00
16:26:54:485 -> 3414.00
16:26:54:486 -> 3493.00
16:26:54:487 -> 3466.00
16:26:54:488 -> 3477.00
16:26:54:490 -> 3481.00
16:26:54:491 -> 3473.00
16:26:54:492 -> 3467.00
16:26:54:493 -> 3447.00
16:26:54:494 -> 3462.00
16:26:54:496 -> 3546.00
16:26:54:497 -> 3510.00
16:26:54:499 -> 3496.00
16:26:54:499 -> 3503.00
16:26:54:500 -> 3492.00
16:26:54:502 -> 3468.00
16:26:54:503 -> 3478.00
16:26:54:505 -> 3463.00
16:26:54:506 -> 3515.00
16:26:54:507 -> 3467.00
16:26:54:507 -> 3486.00
16:26:54:509 -> 3473.00
16:26:54:510 -> 3462.00
16:26:54:511 -> 3479.00
16:26:54:512 -> 3469.00
16:26:54:513 -> 3477.00
16:26:54:515 -> 3479.00
16:26:54:516 -> 3485.00
16:26:54:517 -> 3504.00
16:26:54:518 -> 3492.00
16:26:54:519 -> 3500.00
16:26:54:520 -> 3492.00
16:26:54:522 -> 3479.00
16:26:54:523 -> 3470.00
16:26:54:524 -> 3458.00
16:26:54:525 -> 3443.00
16:26:54:526 -> 3463.00
16:26:54:528 -> 3460.00
16:26:54:529 -> 3466.00
16:26:54:530 -> 3478.00
16:26:54:531 -> 3427.00
16:26:54:532 -> 3459.00
16:26:54:534 -> 3454.00
16:26:54:535 -> 3477.00
16:26:54:536 -> 3477.00
16:26:54:537 -> 3476.00
16:26:54:538 -> 3496.00
16:26:54:539 -> 3467.00
16:26:54:541 -> 3456.00
16:26:54:542 -> 3461.00
16:26:54:543 -> 3484.00
16:26:54:544 -> 3462.00
16:26:54:545 -> 3460.00
16:26:54:547 -> 3450.00
16:26:54:548 -> 3449.00
16:26:54:549 -> 3452.00
16:26:54:550 -> 3443.00
16:26:54:552 -> 3496.00
16:26:54:553 -> 3493.00
16:26:54:554 -> 3494.00
16:26:54:555 -> 3527.00
16:26:54:556 -> 3469.00
16:26:54:557 -> 3521.00
16:26:54:559 -> 3499.00
16:26:54:560 -> 3462.00
16:26:54:561 -> 3479.00
16:26:54:562 -> 3445.00
16:26:54:563 -> 3418.00
16:26:54:565 -> 3415.00
16:26:54:566 -> 3479.00
16:26:54:567 -> 3473.00
16:26:54:568 -> 3461.00
16:26:54:571 -> 3471.00
16:26:54:571 -> 3448.00
16:26:54:572 -> 3505.00
16:26:54:573 -> 3491.00
16:26:54:574 -> 3481.00
16:26:54:578 -> 3496.00
16:26:54:578 -> 3470.00
16:26:54:580 -> 3473.00
16:26:54:580 -> 3489.00
16:26:54:580 -> 3477.00
16:26:54:593 -> 3477.00
16:26:54:593 -> 3491.00
16:26:54:593 -> 3469.00
16:26:54:593 -> 3429.00
16:26:54:593 -> 3437.00
16:26:54:593 -> 3444.00
16:26:54:593 -> 3435.00
16:26:54:593 -> 3453.00
16:26:54:593 -> 3444.00
16:26:54:593 -> 3423.00
16:26:54:596 -> 3441.00
16:26:54:596 -> 3440.00
16:26:54:603 -> 3459.00
16:26:54:603 -> 3464.00
16:26:54:603 -> 3434.00
16:26:54:603 -> 3426.00
16:26:54:603 -> 3400.00
16:26:54:603 -> 3420.00
16:26:54:607 -> 3451.00
16:26:54:607 -> 3472.00
16:26:54:607 -> 3395.00
16:26:54:607 -> 3426.00
16:26:54:609 -> 3467.00
16:26:54:609 -> 3466.00
16:26:54:610 -> 3486.00
16:26:54:611 -> 3488.00
16:26:54:612 -> 3514.00
16:26:54:613 -> 3508.00
16:26:54:614 -> 3484.00
16:26:54:616 -> 3499.00
16:26:54:618 -> 3513.00
16:26:54:620 -> 3501.00
16:26:54:620 -> 3497.00
16:26:54:621 -> 3491.00
16:26:54:622 -> 3463.00
16:26:54:623 -> 3478.00
16:26:54:625 -> 3448.00
16:26:54:629 -> 3442.00
16:26:54:629 -> 3461.00
16:26:54:629 -> 3430.00
16:26:54:629 -> 3457.00
16:26:54:631 -> 3455.00
16:26:54:633 -> 3479.00
16:26:54:635 -> 3476.00
16:26:54:635 -> 3442.00
16:26:54:642 -> 3476.00
16:26:54:642 -> 3516.00
16:26:54:642 -> 3467.00
16:26:54:642 -> 3499.00
16:26:54:642 -> 3491.00
16:26:54:672 -> 3480.00
16:26:54:672 -> 3487.00
16:26:54:672 -> 3431.00
16:26:54:672 -> 3430.00
16:26:54:672 -> 3391.00
16:26:54:672 -> 3421.00
16:26:54:672 -> 3440.00
16:26:54:672 -> 3455.00
16:26:54:672 -> 3461.00
16:26:54:672 -> 3483.00
16:26:54:672 -> 3459.00
16:26:54:672 -> 3474.00
16:26:54:672 -> 3455.00
16:26:54:672 -> 3518.00
16:26:54:672 -> 3530.00
16:26:54:672 -> 3513.00
16:26:54:672 -> 3488.00
16:26:54:672 -> 3473.00
16:26:54:672 -> 3466.00
16:26:54:672 -> 3470.00
16:26:54:672 -> 3445.00
16:26:54:672 -> 3422.00
16:26:54:672 -> 3454.00
16:26:54:672 -> 3474.00
16:26:54:672 -> 3469.00
16:26:54:672 -> 3466.00
16:26:54:672 -> 3445.00
16:26:54:786 -> 3468.00
16:26:54:786 -> 3491.00
16:26:54:786 -> 3540.00
16:26:54:786 -> 3512.00
16:26:54:786 -> 3476.00
16:26:54:786 -> 3488.00
16:26:54:786 -> 3463.00
16:26:54:786 -> 3439.00
16:26:54:786 -> 3479.00
16:26:54:786 -> 3446.00
16:26:54:786 -> 3432.00
16:26:54:786 -> 3395.00
16:26:54:786 -> 3456.00
16:26:54:786 -> 3444.00
16:26:54:786 -> 3431.00
16:26:54:786 -> 3465.00
16:26:54:786 -> 3457.00
16:26:54:786 -> 3472.00
16:26:54:786 -> 3468.00
16:26:54:786 -> 3451.00
16:26:54:786 -> 3483.00
16:26:54:786 -> 3493.00
16:26:54:786 -> 3527.00
16:26:54:786 -> 3526.00
16:26:54:786 -> 3472.00
16:26:54:786 -> 3404.00
16:26:54:786 -> 3364.00
16:26:54:786 -> 3398.00
16:26:54:786 -> 3411.00
16:26:54:829 -> 3397.00
16:26:54:829 -> 3428.00
16:26:54:829 -> 3471.00
16:26:54:829 -> 3504.00
16:26:54:829 -> 3476.00
16:26:54:829 -> 3488.00
16:26:54:829 -> 3509.00
16:26:54:829 -> 3540.00
16:26:54:829 -> 3513.00
16:26:54:829 -> 3499.00
16:26:54:829 -> 3516.00
16:26:54:829 -> 3502.00
16:26:54:829 -> 3465.00
16:26:54:829 -> 3460.00
16:26:54:829 -> 3469.00
16:26:54:829 -> 3443.00
16:26:54:829 -> 3471.00
16:26:54:829 -> 3448.00
16:26:54:829 -> 3470.00
16:26:54:829 -> 3465.00
16:26:54:829 -> 3456.00
16:26:54:829 -> 3513.00
16:26:54:829 -> 3487.00
16:26:54:829 -> 3515.00
16:26:54:829 -> 3521.00
16:26:54:829 -> 3489.00
16:26:54:829 -> 3474.00
16:26:54:829 -> 3483.00
16:26:54:829 -> 3482.00
16:26:54:829 -> 3481.00
16:26:54:829 -> 3495.00
16:26:54:829 -> 3489.00
16:26:54:829 -> 3496.00
16:26:54:829 -> 3482.00
16:26:54:829 -> 3432.00
16:26:54:829 -> 3458.00
16:26:54:829 -> 3473.00
16:26:54:829 -> 3489.00
16:26:54:829 -> 3495.00
16:26:54:829 -> 3482.00
16:26:54:829 -> 3458.00
16:26:54:829 -> 3498.00
16:26:54:829 -> 3459.00
16:26:54:829 -> 3483.00
16:26:54:829 -> 3476.00
16:26:54:829 -> 3491.00
16:26:54:829 -> 3455.00
16:26:54:829 -> 3431.00
16:26:54:829 -> 3431.00
16:26:54:829 -> 3448.00
16:26:54:829 -> 3436.00
16:26:54:829 -> 3454.00
16:26:54:829 -> 3475.00
16:26:54:829 -> 3466.00
16:26:54:829 -> 3462.00
16:26:54:829 -> 3464.00
16:26:54:829 -> 3474.00
16:26:54:829 -> 3511.00
16:26:54:829 -> 3514.00
16:26:54:829 -> 3466.00
16:26:54:829 -> 3495.00
16:26:54:829 -> 3490.00
16:26:54:829 -> 3473.00
16:26:54:829 -> 3459.00
16:26:54:829 -> 3473.00
16:26:54:829 -> 3444.00
16:26:54:829 -> 3477.00
16:26:54:829 -> 3531.00
16:26:54:829 -> 3450.00
16:26:54:829 -> 3452.00
16:26:54:829 -> 3469.00
16:26:54:829 -> 3492.00
16:26:54:829 -> 3448.00
16:26:54:829 -> 3463.00
16:26:54:829 -> 3438.00
16:26:54:829 -> 3464.00
16:26:54:829 -> 3490.00
16:26:54:829 -> 3449.00
16:26:54:829 -> 3452.00
16:26:54:829 -> 3457.00
16:26:54:829 -> 3427.00
16:26:54:829 -> 3413.00
16:26:54:829 -> 3406.00
16:26:54:829 -> 3403.00
16:26:54:829 -> 3459.00
16:26:54:829 -> 3463.00
16:26:54:829 -> 3525.00
16:26:54:829 -> 3515.00
16:26:54:829 -> 3516.00
16:26:54:829 -> 3499.00
16:26:54:840 -> 3485.00
16:26:54:840 -> 3555.00
16:26:54:840 -> 3499.00
16:26:54:840 -> 3508.00
16:26:54:840 -> 3527.00
16:26:54:840 -> 3488.00
16:26:54:840 -> 3467.00
16:26:54:840 -> 3455.00
16:26:54:840 -> 3459.00
16:26:54:840 -> 3466.00
16:26:54:840 -> 3444.00
16:26:54:840 -> 3445.00
16:26:54:840 -> 3447.00
16:26:54:840 -> 3439.00
16:26:54:840 -> 3466.00
16:26:54:840 -> 3488.00
16:26:54:840 -> 3457.00
16:26:54:840 -> 3513.00
16:26:54:840 -> 3493.00
16:26:54:840 -> 3488.00
16:26:54:840 -> 3477.00
16:26:54:840 -> 3480.00
16:26:54:869 -> 3461.00
16:26:54:869 -> 3465.00
16:26:54:869 -> 3474.00
16:26:54:869 -> 3438.00
16:26:54:869 -> 3468.00
16:26:54:869 -> 3418.00
16:26:54:869 -> 3470.00
16:26:54:869 -> 3463.00
16:26:54:869 -> 3482.00
16:26:54:869 -> 3480.00
16:26:54:869 -> 3462.00
16:26:54:869 -> 3496.00
16:26:54:869 -> 3542.00
16:26:54:869 -> 3494.00
16:26:54:869 -> 3502.00
16:26:54:869 -> 3478.00
16:26:54:869 -> 3498.00
16:26:54:869 -> 3502.00
16:26:54:869 -> 3509.00
16:26:54:869 -> 3492.00
16:26:54:869 -> 3416.00
16:26:54:869 -> 3450.00
16:26:54:869 -> 3460.00
16:26:54:869 -> 3493.00
16:26:54:880 -> 3440.00
16:26:54:880 -> 3462.00
16:26:54:880 -> 3487.00
16:26:54:880 -> 3491.00
16:26:54:880 -> 3504.00
16:26:54:880 -> 3470.00
16:26:54:880 -> 3489.00
16:26:54:880 -> 3472.00
16:26:54:880 -> 3462.00
16:26:54:880 -> 3535.00
16:26:54:882 -> 3579.00
16:26:54:883 -> 3538.00
16:26:54:885 -> 3473.00
16:26:54:887 -> 3400.00
16:26:54:887 -> 3475.00
16:26:54:887 -> 3485.00
16:26:54:891 -> 3513.00
16:26:54:891 -> 3335.00
16:26:54:891 -> 3429.00
16:26:54:892 -> 3418.00
16:26:54:894 -> 3475.00
16:26:54:902 -> 3454.00
16:26:54:902 -> 3419.00
16:26:54:902 -> 3483.00
16:26:54:902 -> 3546.00
16:26:54:902 -> 3535.00
16:26:54:902 -> 3483.00
16:26:54:902 -> 3409.00
16:26:54:904 -> 3440.00
16:26:54:904 -> 3525.00
16:26:54:905 -> 3483.00
16:26:54:906 -> 3496.00
16:26:54:909 -> 3434.00
16:26:54:909 -> 3257.00
16:26:54:919 -> 3413.00
16:26:54:919 -> 3527.00
16:26:54:919 -> 3643.00
16:26:54:919 -> 3533.00
16:26:54:919 -> 3539.00
16:26:54:919 -> 3380.00
16:26:54:919 -> 3517.00
16:26:54:919 -> 3549.00
16:26:54:924 -> 3694.00
16:26:54:924 -> 3585.00
16:26:54:924 -> 3388.00
16:26:54:924 -> 3426.00
16:26:54:935 -> 3426.00
16:26:54:935 -> 3408.00
16:26:54:935 -> 3430.00
16:26:54:935 -> 3463.00
16:26:54:935 -> 3481.00
16:26:54:935 -> 3516.00
16:26:54:935 -> 3503.00
16:26:54:935 -> 3514.00
16:26:54:935 -> 3495.00
16:26:54:935 -> 3473.00
16:26:54:944 -> 3531.00
16:26:54:944 -> 3553.00
16:26:54:944 -> 3561.00
16:26:54:944 -> 3553.00
16:26:54:947 -> 3520.00
16:26:54:947 -> 3524.00
16:26:54:947 -> 3381.00
16:26:54:947 -> 3479.00
16:26:54:947 -> 3413.00
16:26:54:947 -> 3447.00
16:26:54:959 -> 3417.00
16:26:54:959 -> 3450.00
16:26:54:959 -> 3460.00
16:26:54:959 -> 3446.00
16:26:54:959 -> 3475.00
16:26:54:959 -> 3531.00
16:26:54:959 -> 3470.00
16:26:54:959 -> 3684.00
16:26:54:959 -> 3646.00
16:26:54:962 -> 3519.00
16:26:54:962 -> 3361.00
16:26:54:962 -> 3466.00
16:26:54:962 -> 3465.00
16:26:54:964 -> 3421.00
16:26:54:965 -> 3391.00
16:26:54:967 -> 3398.00
16:26:54:967 -> 3505.00
16:26:54:968 -> 3484.00
16:26:54:969 -> 3425.00
16:26:54:970 -> 3415.00
16:26:54:982 -> 3425.00
16:26:54:982 -> 3461.00
16:26:54:982 -> 3477.00
16:26:54:982 -> 3499.00
16:26:54:982 -> 3543.00
16:26:54:982 -> 3555.00
16:26:54:982 -> 3541.00
16:26:54:982 -> 3539.00
16:26:54:982 -> 3489.00
16:26:54:982 -> 3482.00
16:26:54:994 -> 3535.00
16:26:54:994 -> 3529.00
16:26:54:994 -> 3431.00
16:26:54:994 -> 3457.00
16:26:54:994 -> 3523.00
16:26:54:994 -> 3520.00
16:26:54:994 -> 3455.00
16:26:54:994 -> 3475.00
16:26:54:994 -> 3514.00
16:26:54:999 -> 3518.00
16:26:54:999 -> 3473.00
16:26:54:999 -> 3430.00
16:26:54:999 -> 3447.00
16:26:55:011 -> 3591.00
16:26:55:011 -> 3554.00
16:26:55:011 -> 3320.00
16:26:55:011 -> 3402.00
16:26:55:011 -> 3415.00
16:26:55:011 -> 3394.00
16:26:55:011 -> 3379.00
16:26:55:011 -> 3422.00
16:26:55:011 -> 3451.00
16:26:55:011 -> 3484.00
16:26:55:011 -> 3566.00
16:26:55:015 -> 3576.00
16:26:55:015 -> 3538.00
16:26:55:015 -> 3545.00
16:26:55:016 -> 3475.00
16:26:55:019 -> 3523.00
16:26:55:019 -> 3504.00
16:26:55:021 -> 3531.00
16:26:55:021 -> 3504.00
16:26:55:026 -> 3480.00
16:26:55:026 -> 3482.00
16:26:55:026 -> 3436.00
16:26:55:028 -> 3409.00
16:26:55:028 -> 3446.00
16:26:55:028 -> 3453.00
16:26:55:030 -> 3471.00
16:26:55:030 -> 3474.00
16:26:55:039 -> 3482.00
16:26:55:039 -> 3487.00
16:26:55:039 -> 3496.00
16:26:55:039 -> 3550.00
16:26:55:039 -> 3575.00
16:26:55:039 -> 3507.00
16:26:55:039 -> 3485.00
16:26:55:040 -> 3437.00
16:26:55:045 -> 3485.00
16:26:55:045 -> 3481.00
16:26:55:045 -> 3516.00
16:26:55:045 -> 3459.00
16:26:55:051 -> 3426.00
16:26:55:051 -> 3404.00
16:26:55:051 -> 3410.00
16:26:55:051 -> 3472.00
16:26:55:051 -> 3495.00
16:26:55:053 -> 3455.00
16:26:55:053 -> 3424.00
16:26:55:054 -> 3423.00
16:26:55:055 -> 3462.00
16:26:55:056 -> 3480.00
16:26:55:057 -> 3580.00
16:26:55:058 -> 3551.00
16:26:55:060 -> 3517.00
16:26:55:061 -> 3494.00
16:26:55:062 -> 3539.00
16:26:55:063 -> 3553.00
16:26:55:064 -> 3317.00
16:26:55:066 -> 3382.00
16:26:55:067 -> 3411.00
16:26:55:068 -> 3360.00
16:26:55:069 -> 3379.00
16:26:55:070 -> 3379.00
16:26:55:071 -> 3402.00
16:26:55:073 -> 3449.00
16:26:55:075 -> 3466.00
16:26:55:075 -> 3435.00
16:26:55:105 -> 3424.00
16:26:55:105 -> 3472.00
16:26:55:105 -> 3455.00
16:26:55:105 -> 3515.00
16:26:55:105 -> 3531.00
16:26:55:105 -> 3550.00
16:26:55:105 -> 3533.00
16:26:55:108 -> 3478.00
16:26:55:108 -> 3467.00
16:26:55:108 -> 3470.00
16:26:55:108 -> 3446.00
16:26:55:108 -> 3472.00
16:26:55:108 -> 3493.00
16:26:55:108 -> 3531.00
16:26:55:108 -> 3482.00
16:26:55:108 -> 3488.00
16:26:55:108 -> 3536.00
16:26:55:108 -> 3544.00
16:26:55:108 -> 3460.00
16:26:55:108 -> 3492.00
16:26:55:108 -> 3500.00
16:26:55:108 -> 3494.00
16:26:55:108 -> 3453.00
16:26:55:108 -> 3586.00
16:26:55:108 -> 3624.00
16:26:55:108 -> 3446.00
16:26:55:108 -> 3308.00
16:26:55:110 -> 3402.00
16:26:55:111 -> 3440.00
16:26:55:111 -> 3456.00
16:26:55:112 -> 3466.00
16:26:55:113 -> 3376.00
16:26:55:114 -> 3470.00
16:26:55:115 -> 3512.00
16:26:55:117 -> 3473.00
16:26:55:118 -> 3502.00
16:26:55:119 -> 3450.00
16:26:55:120 -> 3471.00
16:26:55:121 -> 3447.00
16:26:55:123 -> 3475.00
16:26:55:124 -> 3469.00
16:26:55:125 -> 3487.00
16:26:55:126 -> 3429.00
16:26:55:127 -> 3445.00
16:26:55:129 -> 3446.00
16:26:55:130 -> 3454.00
16:26:55:131 -> 3431.00
16:26:55:132 -> 3453.00
16:26:55:133 -> 3485.00
16:26:55:135 -> 3467.00
16:26:55:136 -> 3462.00
16:26:55:137 -> 3480.00
16:26:55:138 -> 3469.00
16:26:55:139 -> 3491.00
16:26:55:141 -> 3455.00
16:26:55:142 -> 3491.00
16:26:55:163 -> 3449.00
16:26:55:163 -> 3416.00
16:26:55:163 -> 3361.00
16:26:55:163 -> 3282.00
16:26:55:163 -> 3408.00
16:26:55:163 -> 3405.00
16:26:55:163 -> 3418.00
16:26:55:163 -> 3472.00
16:26:55:163 -> 3405.00
16:26:55:163 -> 3471.00
16:26:55:163 -> 3560.00
16:26:55:163 -> 3596.00
16:26:55:163 -> 3515.00
16:26:55:163 -> 3490.00
16:26:55:163 -> 3491.00
16:26:55:163 -> 3473.00
16:26:55:163 -> 3510.00
16:26:55:163 -> 3508.00
16:26:55:187 -> 3396.00
16:26:55:187 -> 3446.00
16:26:55:187 -> 3363.00
16:26:55:187 -> 3412.00
16:26:55:187 -> 3468.00
16:26:55:187 -> 3516.00
16:26:55:187 -> 3454.00
16:26:55:187 -> 3512.00
16:26:55:187 -> 3514.00
16:26:55:187 -> 3468.00
16:26:55:187 -> 3517.00
16:26:55:187 -> 3478.00
16:26:55:187 -> 3476.00
16:26:55:187 -> 3477.00
16:26:55:187 -> 3450.00
16:26:55:187 -> 3423.00
16:26:55:187 -> 3417.00
16:26:55:187 -> 3431.00
16:26:55:187 -> 3429.00
16:26:55:187 -> 3476.00
16:26:55:194 -> 3418.00
16:26:55:194 -> 3471.00
16:26:55:194 -> 3453.00
16:26:55:202 -> 3444.00
16:26:55:202 -> 3495.00
16:26:55:202 -> 3511.00
16:26:55:202 -> 3476.00
16:26:55:202 -> 3450.00
16:26:55:202 -> 3477.00
16:26:55:202 -> 3450.00
16:26:55:202 -> 3471.00
16:26:55:202 -> 3406.00
16:26:55:203 -> 3355.00
16:26:55:204 -> 3462.00
16:26:55:205 -> 3456.00
16:26:55:206 -> 3413.00
16:26:55:207 -> 3466.00
16:26:55:208 -> 3356.00
16:26:55:210 -> 3259.00
16:26:55:212 -> 3055.00
16:26:55:217 -> 3092.00
16:26:55:217 -> 3150.00
16:26:55:217 -> 3136.00
16:26:55:217 -> 3219.00
16:26:55:218 -> 3270.00
16:26:55:218 -> 3276.00
16:26:55:222 -> 3533.00
16:26:55:222 -> 3807.00
16:26:55:222 -> 3671.00
16:26:55:232 -> 3572.00
16:26:55:232 -> 3794.00
16:26:55:232 -> 3861.00
16:26:55:232 -> 3494.00
16:26:55:232 -> 3578.00
16:26:55:232 -> 3548.00
16:26:55:232 -> 3495.00
16:26:55:232 -> 3481.00
16:26:55:234 -> 3550.00
16:26:55:234 -> 3517.00
16:26:55:234 -> 3578.00
16:26:55:236 -> 3477.00
16:26:55:237 -> 3515.00
16:26:55:238 -> 3485.00
16:26:55:239 -> 3458.00
16:26:55:240 -> 3465.00
16:26:55:242 -> 3455.00
16:26:55:243 -> 3473.00
16:26:55:244 -> 3441.00
16:26:55:245 -> 3448.00
16:26:55:246 -> 3418.00
16:26:55:248 -> 3503.00
16:26:55:249 -> 3515.00
16:26:55:250 -> 3538.00
16:26:55:251 -> 3418.00
16:26:55:252 -> 3442.00
16:26:55:254 -> 3464.00
16:26:55:255 -> 3470.00
16:26:55:256 -> 3446.00
16:26:55:258 -> 3510.00
16:26:55:258 -> 3441.00
16:26:55:260 -> 3429.00
16:26:55:261 -> 3456.00
16:26:55:262 -> 3429.00
16:26:55:263 -> 3381.00
16:26:55:264 -> 3250.00
16:26:55:265 -> 3366.00
16:26:55:267 -> 3511.00
16:26:55:268 -> 3370.00
16:26:55:270 -> 3466.00
16:26:55:271 -> 3490.00
16:26:55:271 -> 3571.00
16:26:55:273 -> 3537.00
16:26:55:274 -> 3465.00
16:26:55:275 -> 3435.00
16:26:55:276 -> 3325.00
16:26:55:277 -> 3316.00
16:26:55:279 -> 3418.00
16:26:55:280 -> 3411.00
16:26:55:281 -> 3312.00
16:26:55:282 -> 3539.00
16:26:55:283 -> 3581.00
16:26:55:285 -> 3566.00
16:26:55:312 -> 3707.00
16:26:55:323 -> 3595.00
16:26:55:323 -> 3485.00
16:26:55:323 -> 3540.00
16:26:55:323 -> 3494.00
16:26:55:323 -> 3553.00
16:26:55:323 -> 3566.00
16:26:55:323 -> 3531.00
16:26:55:323 -> 3480.00
16:26:55:323 -> 3443.00
16:26:55:323 -> 3533.00
16:26:55:323 -> 3559.00
16:26:55:323 -> 3654.00
16:26:55:323 -> 3683.00
16:26:55:323 -> 3326.00
16:26:55:323 -> 3415.00
16:26:55:323 -> 3416.00
16:26:55:323 -> 3372.00
16:26:55:323 -> 3434.00
16:26:55:323 -> 3436.00
16:26:55:323 -> 3424.00
16:26:55:323 -> 3380.00
16:26:55:323 -> 3395.00
16:26:55:323 -> 3400.00
16:26:55:325 -> 3385.00
16:26:55:325 -> 3428.00
16:26:55:325 -> 3516.00
16:26:55:325 -> 3623.00
16:26:55:325 -> 3514.00
16:26:55:325 -> 3449.00
16:26:55:325 -> 3389.00
16:26:55:325 -> 3418.00
16:26:55:325 -> 3458.00
16:26:55:325 -> 3454.00
16:26:55:326 -> 3442.00
16:26:55:327 -> 3422.00
16:26:55:329 -> 3405.00
16:26:55:330 -> 3356.00
16:26:55:331 -> 3371.00
16:26:55:332 -> 3438.00
16:26:55:333 -> 3510.00
16:26:55:334 -> 3511.00
16:26:55:336 -> 3603.00
16:26:55:337 -> 3583.00
16:26:55:338 -> 3556.00
16:26:55:339 -> 3536.00
16:26:55:340 -> 3485.00
16:26:55:342 -> 3313.00
16:26:55:343 -> 3195.00
16:26:55:344 -> 3298.00
16:26:55:345 -> 3290.00
16:26:55:346 -> 3506.00
16:26:55:348 -> 3527.00
16:26:55:349 -> 3443.00
16:26:55:350 -> 3410.00
16:26:55:351 -> 3473.00
16:26:55:352 -> 3562.00
16:26:55:354 -> 3583.00
16:26:55:355 -> 3492.00
16:26:55:356 -> 3471.00
16:26:55:357 -> 3506.00
16:26:55:360 -> 3502.00
16:26:55:360 -> 3496.00
16:26:55:361 -> 3480.00
16:26:55:363 -> 3491.00
16:26:55:363 -> 3427.00
16:26:55:368 -> 3353.00
16:26:55:368 -> 3360.00
16:26:55:368 -> 3451.00
16:26:55:368 -> 3417.00
16:26:55:386 -> 3423.00
16:26:55:386 -> 3328.00
16:26:55:386 -> 3381.00
16:26:55:386 -> 3433.00
16:26:55:386 -> 3342.00
16:26:55:386 -> 3374.00
16:26:55:386 -> 3506.00
16:26:55:386 -> 3495.00
16:26:55:386 -> 3504.00
16:26:55:386 -> 3531.00
16:26:55:386 -> 3556.00
16:26:55:386 -> 3558.00
16:26:55:386 -> 3530.00
16:26:55:386 -> 3388.00
16:26:55:386 -> 3382.00
16:26:55:390 -> 3458.00
16:26:55:390 -> 3469.00
16:26:55:390 -> 3580.00
16:26:55:390 -> 3510.00
16:26:55:392 -> 3499.00
16:26:55:394 -> 3447.00
16:26:55:394 -> 3545.00
16:26:55:396 -> 3616.00
16:26:55:401 -> 3535.00
16:26:55:401 -> 3567.00
16:26:55:401 -> 3502.00
16:26:55:401 -> 3412.00
16:26:55:412 -> 3556.00
16:26:55:412 -> 3546.00
16:26:55:412 -> 3290.00
16:26:55:412 -> 3234.00
16:26:55:412 -> 3413.00
16:26:55:412 -> 3449.00
16:26:55:412 -> 3461.00
16:26:55:412 -> 3467.00
16:26:55:412 -> 3410.00
16:26:55:412 -> 3521.00
16:26:55:413 -> 3641.00
16:26:55:414 -> 3454.00
16:26:55:415 -> 3382.00
16:26:55:417 -> 3398.00
16:26:55:418 -> 3555.00
16:26:55:419 -> 3551.00
16:26:55:420 -> 3471.00
16:26:55:423 -> 3356.00
16:26:55:423 -> 3476.00
16:26:55:424 -> 3093.00
16:26:55:427 -> 3379.00
16:26:55:427 -> 3415.00
16:26:55:429 -> 3193.00
16:26:55:429 -> 3317.00
16:26:55:463 -> 3544.00
16:26:55:463 -> 3699.00
16:26:55:463 -> 3548.00
16:26:55:463 -> 3528.00
16:26:55:463 -> 3599.00
16:26:55:463 -> 3566.00
16:26:55:463 -> 3489.00
16:26:55:463 -> 3505.00
16:26:55:463 -> 3482.00
16:26:55:463 -> 3513.00
16:26:55:463 -> 3512.00
16:26:55:463 -> 3399.00
16:26:55:463 -> 3336.00
16:26:55:463 -> 3313.00
16:26:55:463 -> 3310.00
16:26:55:463 -> 3530.00
16:26:55:463 -> 3703.00
16:26:55:463 -> 3564.00
16:26:55:463 -> 3393.00
16:26:55:463 -> 3464.00
16:26:55:463 -> 3455.00
16:26:55:463 -> 3545.00
16:26:55:463 -> 3530.00
16:26:55:463 -> 3329.00
16:26:55:463 -> 3356.00
16:26:55:463 -> 3582.00
16:26:55:463 -> 3536.00
16:26:55:463 -> 3273.00
16:26:55:466 -> 3412.00
16:26:55:466 -> 3423.00
16:26:55:466 -> 3457.00
16:26:55:467 -> 3541.00
16:26:55:468 -> 3449.00
16:26:55:469 -> 3488.00
16:26:55:471 -> 3467.00
16:26:55:471 -> 3338.00
16:26:55:491 -> 3324.00
16:26:55:491 -> 3467.00
16:26:55:491 -> 3345.00
16:26:55:491 -> 3380.00
16:26:55:491 -> 3392.00
16:26:55:491 -> 3397.00
16:26:55:491 -> 3256.00
16:26:55:491 -> 3295.00
16:26:55:491 -> 3437.00
16:26:55:491 -> 3504.00
16:26:55:491 -> 3482.00
16:26:55:491 -> 3328.00
16:26:55:491 -> 3475.00
16:26:55:491 -> 3563.00
16:26:55:491 -> 3506.00
16:26:55:491 -> 3470.00
16:26:55:526 -> 3476.00
16:26:55:526 -> 3472.00
16:26:55:526 -> 3512.00
16:26:55:526 -> 3620.00
16:26:55:526 -> 3542.00
16:26:55:526 -> 3541.00
16:26:55:526 -> 3430.00
16:26:55:526 -> 3390.00
16:26:55:526 -> 3376.00
16:26:55:526 -> 3442.00
16:26:55:526 -> 3526.00
16:26:55:526 -> 3478.00
16:26:55:526 -> 3461.00
16:26:55:526 -> 3408.00
16:26:55:526 -> 3369.00
16:26:55:526 -> 3481.00
16:26:55:526 -> 3445.00
16:26:55:526 -> 3368.00
16:26:55:526 -> 3306.00
16:26:55:526 -> 3412.00
16:26:55:526 -> 3534.00
16:26:55:526 -> 3623.00
16:26:55:526 -> 3284.00
16:26:55:526 -> 3188.00
16:26:55:526 -> 3220.00
16:26:55:526 -> 3158.00
16:26:55:526 -> 3302.00
16:26:55:526 -> 3423.00
16:26:55:526 -> 3511.00
16:26:55:561 -> 3729.00
16:26:55:561 -> 3697.00
16:26:55:561 -> 3670.00
16:26:55:561 -> 3407.00
16:26:55:561 -> 3443.00
16:26:55:561 -> 3476.00
16:26:55:561 -> 3512.00
16:26:55:561 -> 3533.00
16:26:55:561 -> 3533.00
16:26:55:561 -> 3476.00
16:26:55:561 -> 3475.00
16:26:55:561 -> 3391.00
16:26:55:561 -> 3607.00
16:26:55:561 -> 3558.00
16:26:55:561 -> 3402.00
16:26:55:561 -> 3367.00
16:26:55:561 -> 3319.00
16:26:55:561 -> 3365.00
16:26:55:561 -> 3399.00
16:26:55:561 -> 3447.00
16:26:55:561 -> 3420.00
16:26:55:561 -> 3443.00
16:26:55:561 -> 3553.00
16:26:55:561 -> 3500.00
16:26:55:561 -> 3475.00
16:26:55:561 -> 3466.00
16:26:55:561 -> 3508.00
16:26:55:561 -> 3480.00
16:26:55:561 -> 3513.00
16:26:55:561 -> 3560.00
16:26:55:569 -> 3446.00
16:26:55:569 -> 3389.00
16:26:55:569 -> 3490.00
16:26:55:569 -> 3426.00
16:26:55:569 -> 3358.00
16:26:55:569 -> 3458.00
16:26:55:589 -> 3496.00
16:26:55:589 -> 3328.00
16:26:55:589 -> 3368.00
16:26:55:589 -> 3358.00
16:26:55:589 -> 3382.00
16:26:55:589 -> 3411.00
16:26:55:589 -> 3357.00
16:26:55:589 -> 3396.00
16:26:55:589 -> 3480.00
16:26:55:589 -> 3522.00
16:26:55:589 -> 3451.00
16:26:55:589 -> 3444.00
16:26:55:589 -> 3454.00
16:26:55:589 -> 3479.00
16:26:55:589 -> 3442.00
16:26:55:589 -> 3390.00
16:26:55:589 -> 3377.00
16:26:55:624 -> 3386.00
16:26:55:624 -> 3359.00
16:26:55:624 -> 3435.00
16:26:55:624 -> 3439.00
16:26:55:624 -> 3497.00
16:26:55:624 -> 3489.00
16:26:55:624 -> 3531.00
16:26:55:624 -> 3395.00
16:26:55:624 -> 3470.00
16:26:55:624 -> 3630.00
16:26:55:624 -> 3461.00
16:26:55:624 -> 3382.00
16:26:55:624 -> 3404.00
16:26:55:624 -> 3410.00
16:26:55:624 -> 3430.00
16:26:55:624 -> 3367.00
16:26:55:624 -> 3346.00
16:26:55:624 -> 3404.00
16:26:55:624 -> 3360.00
16:26:55:624 -> 3435.00
16:26:55:624 -> 3493.00
16:26:55:624 -> 3468.00
16:26:55:624 -> 3414.00
16:26:55:624 -> 3295.00
16:26:55:624 -> 3391.00
16:26:55:624 -> 3436.00
16:26:55:624 -> 3461.00
16:26:55:624 -> 3620.00
16:26:55:624 -> 3583.00
16:26:55:624 -> 3460.00
16:26:55:643 -> 3322.00
16:26:55:643 -> 3336.00
16:26:55:643 -> 3393.00
16:26:55:643 -> 3493.00
16:26:55:643 -> 3508.00
16:26:55:643 -> 3423.00
16:26:55:643 -> 3453.00
16:26:55:643 -> 3467.00
16:26:55:643 -> 3454.00
16:26:55:643 -> 3472.00
16:26:55:643 -> 3468.00
16:26:55:643 -> 3481.00
16:26:55:643 -> 3409.00
16:26:55:643 -> 3454.00
16:26:55:643 -> 3459.00
16:26:55:643 -> 3404.00
16:26:55:660 -> 3413.00
16:26:55:660 -> 3533.00
16:26:55:660 -> 3521.00
16:26:55:660 -> 3475.00
16:26:55:660 -> 3457.00
16:26:55:660 -> 3374.00
16:26:55:660 -> 3432.00
16:26:55:660 -> 3483.00
16:26:55:660 -> 3450.00
16:26:55:660 -> 3434.00
16:26:55:660 -> 3451.00
16:26:55:660 -> 3581.00
16:26:55:660 -> 3422.00
16:26:55:660 -> 3467.00
16:26:55:677 -> 3462.00
16:26:55:677 -> 3505.00
16:26:55:677 -> 3502.00
16:26:55:677 -> 3580.00
16:26:55:677 -> 3343.00
16:26:55:677 -> 3372.00
16:26:55:677 -> 3339.00
16:26:55:677 -> 3393.00
16:26:55:677 -> 3374.00
16:26:55:677 -> 3405.00
16:26:55:677 -> 3381.00
16:26:55:677 -> 3441.00
16:26:55:677 -> 3478.00
16:26:55:677 -> 3444.00
16:26:55:701 -> 3418.00
16:26:55:701 -> 3402.00
16:26:55:701 -> 3410.00
16:26:55:701 -> 3456.00
16:26:55:701 -> 3430.00
16:26:55:701 -> 3415.00
16:26:55:701 -> 3463.00
16:26:55:701 -> 3497.00
16:26:55:701 -> 3511.00
16:26:55:701 -> 3483.00
16:26:55:701 -> 3407.00
16:26:55:701 -> 3412.00
16:26:55:701 -> 3385.00
16:26:55:701 -> 3430.00
16:26:55:701 -> 3513.00
16:26:55:701 -> 3499.00
16:26:55:701 -> 3376.00
16:26:55:701 -> 3514.00
16:26:55:709 -> 3419.00
16:26:55:709 -> 3328.00
16:26:55:709 -> 3368.00
16:26:55:709 -> 3601.00
16:26:55:709 -> 3427.00
16:26:55:709 -> 3316.00
16:26:55:709 -> 3363.00
16:26:55:709 -> 3284.00
16:26:55:709 -> 3152.00
16:26:55:730 -> 3296.00
16:26:55:730 -> 3310.00
16:26:55:730 -> 3372.00
16:26:55:730 -> 3508.00
16:26:55:730 -> 3649.00
16:26:55:730 -> 3673.00
16:26:55:730 -> 3716.00
16:26:55:730 -> 3569.00
16:26:55:730 -> 3569.00
16:26:55:730 -> 3367.00
16:26:55:730 -> 3356.00
16:26:55:730 -> 3390.00
16:26:55:730 -> 3436.00
16:26:55:730 -> 3446.00
16:26:55:730 -> 3477.00
16:26:55:730 -> 3513.00
16:26:55:730 -> 3477.00
16:26:55:730 -> 3474.00
16:26:55:736 -> 3473.00
16:26:55:736 -> 3518.00
16:26:55:736 -> 3538.00
16:26:55:736 -> 3457.00
16:26:55:736 -> 3503.00
16:26:55:737 -> 3468.00
16:26:55:738 -> 3385.00
16:26:55:739 -> 3427.00
16:26:55:742 -> 3501.00
16:26:55:742 -> 3488.00
16:26:55:745 -> 3514.00
16:26:55:745 -> 3480.00
16:26:55:745 -> 3438.00
16:26:55:748 -> 3421.00
16:26:55:748 -> 3425.00
16:26:55:749 -> 3452.00
16:26:55:750 -> 3438.00
16:26:55:751 -> 3435.00
16:26:55:752 -> 3463.00
16:26:55:753 -> 3510.00
16:26:55:755 -> 3468.00
16:26:55:756 -> 3335.00
16:26:55:758 -> 3433.00
16:26:55:758 -> 3436.00
16:26:55:760 -> 3461.00
16:26:55:764 -> 3454.00
16:26:55:764 -> 3478.00
16:26:55:764 -> 3393.00
16:26:55:765 -> 3314.00
16:26:55:765 -> 3384.00
16:26:55:767 -> 3468.00
16:26:55:768 -> 3451.00
16:26:55:769 -> 3453.00
16:26:55:770 -> 3403.00
16:26:55:771 -> 3396.00
16:26:55:773 -> 3308.00
16:26:55:774 -> 3272.00
16:26:55:775 -> 3361.00
16:26:55:778 -> 3398.00
16:26:55:783 -> 3461.00
16:26:55:783 -> 3541.00
16:26:55:783 -> 3549.00
16:26:55:783 -> 3542.00
16:26:55:783 -> 3422.00
16:26:55:783 -> 3465.00
16:26:55:784 -> 3493.00
16:26:55:786 -> 3485.00
16:26:55:787 -> 3591.00
16:26:55:788 -> 3442.00
16:26:55:796 -> 3383.00
16:26:55:796 -> 3382.00
16:26:55:796 -> 3416.00
16:26:55:796 -> 3447.00
16:26:55:796 -> 3562.00
16:26:55:796 -> 3592.00
16:26:55:853 -> 3541.00
16:26:55:853 -> 3336.00
16:26:55:853 -> 3312.00
16:26:55:853 -> 3385.00
16:26:55:853 -> 3421.00
16:26:55:853 -> 3382.00
16:26:55:853 -> 3408.00
16:26:55:853 -> 3470.00
16:26:55:853 -> 3474.00
16:26:55:853 -> 3407.00
16:26:55:853 -> 3355.00
16:26:55:853 -> 3466.00
16:26:55:853 -> 3591.00
16:26:55:853 -> 3551.00
16:26:55:853 -> 3440.00
16:26:55:853 -> 3439.00
16:26:55:853 -> 3391.00
16:26:55:853 -> 3426.00
16:26:55:853 -> 3423.00
16:26:55:853 -> 3410.00
16:26:55:853 -> 3395.00
16:26:55:853 -> 3462.00
16:26:55:853 -> 3394.00
16:26:55:853 -> 3369.00
16:26:55:863 -> 3355.00
16:26:55:863 -> 3355.00
16:26:55:863 -> 3445.00
16:26:55:863 -> 3542.00
16:26:55:863 -> 3588.00
16:26:55:863 -> 3546.00
16:26:55:863 -> 3477.00
16:26:55:863 -> 3519.00
16:26:55:863 -> 3551.00
16:26:55:863 -> 3487.00
16:26:55:863 -> 3530.00
16:26:55:863 -> 3520.00
16:26:55:863 -> 3483.00
16:26:55:863 -> 3507.00
16:26:55:863 -> 3421.00
16:26:55:863 -> 3494.00
16:26:55:863 -> 3411.00
16:26:55:863 -> 3380.00
16:26:55:863 -> 3404.00
16:26:55:863 -> 3399.00
16:26:55:863 -> 3440.00
16:26:55:863 -> 3518.00
16:26:55:863 -> 3458.00
16:26:55:863 -> 3408.00
16:26:55:863 -> 3408.00
16:26:55:863 -> 3456.00
16:26:55:863 -> 3431.00
16:26:55:863 -> 3466.00
16:26:55:863 -> 3508.00
16:26:55:863 -> 3477.00
16:26:55:863 -> 3431.00
16:26:55:863 -> 3442.00
16:26:55:867 -> 3552.00
16:26:55:867 -> 3444.00
16:26:55:867 -> 3425.00
16:26:55:867 -> 3373.00
16:26:55:873 -> 3365.00
16:26:55:873 -> 3470.00
16:26:55:873 -> 3458.00
16:26:55:873 -> 3307.00
16:26:55:873 -> 3374.00
16:26:55:880 -> 3387.00
16:26:55:880 -> 3465.00
16:26:55:880 -> 3492.00
16:26:55:880 -> 3499.00
16:26:55:880 -> 3469.00
16:26:55:880 -> 3481.00
16:26:55:891 -> 3479.00
16:26:55:891 -> 3427.00
16:26:55:891 -> 3400.00
16:26:55:891 -> 3561.00
16:26:55:891 -> 3454.00
16:26:55:891 -> 3422.00
16:26:55:891 -> 3412.00
16:26:55:891 -> 3435.00
16:26:55:891 -> 3453.00
16:26:55:894 -> 3441.00
16:26:55:894 -> 3411.00
16:26:55:894 -> 3402.00
16:26:55:895 -> 3377.00
16:26:55:896 -> 3433.00
16:26:55:897 -> 3423.00
16:26:55:899 -> 3459.00
16:26:55:900 -> 3320.00
16:26:55:905 -> 3349.00
16:26:55:905 -> 3449.00
16:26:55:905 -> 3516.00
16:26:55:905 -> 3436.00
16:26:55:907 -> 3449.00
16:26:55:909 -> 3509.00
16:26:55:909 -> 3436.00
16:26:55:910 -> 3426.00
16:26:55:911 -> 3516.00
16:26:55:912 -> 3508.00
16:26:55:913 -> 3499.00
16:26:55:914 -> 3487.00
16:26:55:916 -> 3420.00
16:26:55:918 -> 3468.00
16:26:55:918 -> 3520.00
16:26:55:919 -> 3526.00
16:26:55:920 -> 3484.00
16:26:55:921 -> 3452.00
16:26:55:923 -> 3463.00
16:26:55:924 -> 3423.00
16:26:55:926 -> 3431.00
16:26:55:928 -> 3423.00
16:26:55:928 -> 3405.00
16:26:55:928 -> 3477.00
16:26:55:930 -> 3538.00
16:26:55:931 -> 3500.00
16:26:55:936 -> 3472.00
16:26:55:936 -> 3368.00
16:26:55:936 -> 3509.00
16:26:55:936 -> 3436.00
16:26:55:938 -> 3435.00
16:26:55:938 -> 3496.00
16:26:55:939 -> 3474.00
16:26:55:940 -> 3483.00
16:26:55:942 -> 3474.00
16:26:55:943 -> 3422.00
16:26:55:944 -> 3363.00
16:26:55:945 -> 3367.00
16:26:55:952 -> 3427.00
16:26:55:952 -> 3410.00
16:26:55:952 -> 3449.00
16:26:55:952 -> 3400.00
16:26:55:952 -> 3313.00
16:26:55:957 -> 3404.00
16:26:55:957 -> 3536.00
16:26:55:957 -> 3500.00
16:26:55:957 -> 3434.00
16:26:55:957 -> 3421.00
16:26:55:965 -> 3520.00
16:26:55:965 -> 3470.00
16:26:55:965 -> 3447.00
16:26:55:965 -> 3464.00
16:26:55:965 -> 3416.00
16:26:55:965 -> 3523.00
16:26:55:965 -> 3444.00
16:26:55:972 -> 3393.00
16:26:55:972 -> 3409.00
16:26:55:972 -> 3444.00
16:26:55:972 -> 3414.00
16:26:55:972 -> 3418.00
16:26:55:974 -> 3512.00
16:26:55:974 -> 3478.00
16:26:55:975 -> 3465.00
16:26:55:976 -> 3514.00
16:26:55:977 -> 3455.00
16:26:55:979 -> 3465.00
16:26:55:980 -> 3466.00
16:26:55:981 -> 3500.00
16:26:55:982 -> 3474.00
16:26:55:983 -> 3464.00
16:26:55:984 -> 3362.00
16:26:55:986 -> 3397.00
16:26:55:987 -> 3372.00
16:26:55:988 -> 3428.00
16:26:55:989 -> 3508.00
16:26:55:990 -> 3523.00
16:26:55:991 -> 3501.00
16:26:55:993 -> 3463.00
16:26:55:994 -> 3473.00
16:26:55:995 -> 3538.00
16:26:55:996 -> 3480.00
16:26:55:997 -> 3416.00
16:26:55:999 -> 3431.00
16:26:56:000 -> 3541.00
16:26:56:008 -> 3423.00
16:26:56:008 -> 3409.00
16:26:56:008 -> 3443.00
16:26:56:008 -> 3382.00
16:26:56:008 -> 3375.00
16:26:56:008 -> 3437.00
16:26:56:015 -> 3500.00
16:26:56:015 -> 3489.00
16:26:56:015 -> 3420.00
16:26:56:015 -> 3367.00
16:26:56:015 -> 3505.00
16:26:56:015 -> 3475.00
16:26:56:018 -> 3519.00
16:26:56:018 -> 3514.00
16:26:56:018 -> 3466.00
16:26:56:035 -> 3530.00
16:26:56:035 -> 3515.00
16:26:56:039 -> 3514.00
16:26:56:039 -> 3474.00
16:26:56:039 -> 3464.00
16:26:56:039 -> 3473.00
16:26:56:039 -> 3466.00
16:26:56:039 -> 3454.00
16:26:56:039 -> 3374.00
16:26:56:039 -> 3402.00
16:26:56:039 -> 3489.00
16:26:56:039 -> 3459.00
16:26:56:039 -> 3481.00
16:26:56:039 -> 3497.00
16:26:56:039 -> 3480.00
16:26:56:039 -> 3468.00
16:26:56:039 -> 3478.00
16:26:56:040 -> 3510.00
16:26:56:040 -> 3522.00
16:26:56:050 -> 3465.00
16:26:56:050 -> 3440.00
16:26:56:050 -> 3441.00
16:26:56:050 -> 3374.00
16:26:56:050 -> 3312.00
16:26:56:050 -> 3371.00
16:26:56:050 -> 3453.00
16:26:56:050 -> 3452.00
16:26:56:057 -> 3321.00
16:26:56:057 -> 3428.00
16:26:56:057 -> 3494.00
16:26:56:057 -> 3427.00
16:26:56:057 -> 3488.00
16:26:56:058 -> 3558.00
16:26:56:058 -> 3486.00
16:26:56:060 -> 3443.00
16:26:56:060 -> 3425.00
16:26:56:062 -> 3477.00
16:26:56:063 -> 3447.00
16:26:56:064 -> 3432.00
16:26:56:065 -> 3483.00
16:26:56:066 -> 3430.00
16:26:56:068 -> 3490.00
16:26:56:069 -> 3405.00
16:26:56:070 -> 3404.00
16:26:56:071 -> 3409.00
16:26:56:072 -> 3400.00
16:26:56:074 -> 3372.00
16:26:56:079 -> 3419.00
16:26:56:079 -> 3367.00
16:26:56:079 -> 3424.00
16:26:56:079 -> 3338.00
16:26:56:095 -> 3409.00
16:26:56:095 -> 3519.00
16:26:56:095 -> 3569.00
16:26:56:095 -> 3509.00
16:26:56:095 -> 3517.00
16:26:56:095 -> 3408.00
16:26:56:095 -> 3463.00
16:26:56:095 -> 3491.00
16:26:56:095 -> 3452.00
16:26:56:095 -> 3451.00
16:26:56:095 -> 3495.00
16:26:56:095 -> 3478.00
16:26:56:095 -> 3514.00
16:26:56:095 -> 3532.00
16:26:56:104 -> 3469.00
16:26:56:104 -> 3434.00
16:26:56:104 -> 3461.00
16:26:56:104 -> 3568.00
16:26:56:104 -> 3492.00
16:26:56:104 -> 3531.00
16:26:56:104 -> 3514.00
16:26:56:117 -> 3454.00
16:26:56:117 -> 3469.00
16:26:56:117 -> 3535.00
16:26:56:117 -> 3472.00
16:26:56:117 -> 3446.00
16:26:56:117 -> 3506.00
16:26:56:117 -> 3434.00
16:26:56:117 -> 3395.00
16:26:56:117 -> 3452.00
16:26:56:117 -> 3441.00
16:26:56:117 -> 3424.00
16:26:56:125 -> 3468.00
16:26:56:125 -> 3526.00
16:26:56:125 -> 3512.00
16:26:56:125 -> 3455.00
16:26:56:125 -> 3424.00
16:26:56:125 -> 3413.00
16:26:56:125 -> 3365.00
16:26:56:129 -> 3448.00
16:26:56:129 -> 3433.00
16:26:56:129 -> 3452.00
16:26:56:159 -> 3488.00
16:26:56:159 -> 3476.00
16:26:56:159 -> 3439.00
16:26:56:159 -> 3404.00
16:26:56:159 -> 3459.00
16:26:56:159 -> 3533.00
16:26:56:159 -> 3494.00
16:26:56:159 -> 3498.00
16:26:56:165 -> 3507.00
16:26:56:165 -> 3409.00
16:26:56:165 -> 3381.00
16:26:56:165 -> 3484.00
16:26:56:165 -> 3414.00
16:26:56:165 -> 3353.00
16:26:56:165 -> 3493.00
16:26:56:165 -> 3397.00
16:26:56:165 -> 3366.00
16:26:56:165 -> 3469.00
16:26:56:165 -> 3478.00
16:26:56:165 -> 3469.00
16:26:56:165 -> 3354.00
16:26:56:165 -> 3370.00
16:26:56:165 -> 3401.00
16:26:56:165 -> 3504.00
16:26:56:165 -> 3402.00
16:26:56:165 -> 3464.00
16:26:56:165 -> 3491.00
16:26:56:165 -> 3496.00
16:26:56:165 -> 3562.00
16:26:56:165 -> 3452.00
16:26:56:165 -> 3391.00
16:26:56:175 -> 3401.00
16:26:56:175 -> 3316.00
16:26:56:175 -> 3436.00
16:26:56:175 -> 3520.00
16:26:56:175 -> 3507.00
16:26:56:175 -> 3399.00
16:26:56:175 -> 3374.00
16:26:56:178 -> 3530.00
16:26:56:178 -> 3478.00
16:26:56:178 -> 3469.00
16:26:56:178 -> 3458.00
16:26:56:180 -> 3364.00
16:26:56:183 -> 3425.00
16:26:56:183 -> 3400.00
16:26:56:185 -> 3432.00
16:26:56:185 -> 3456.00
16:26:56:188 -> 3390.00
16:26:56:188 -> 3354.00
16:26:56:188 -> 3441.00
16:26:56:194 -> 3510.00
16:26:56:194 -> 3522.00
16:26:56:194 -> 3462.00
16:26:56:194 -> 3483.00
16:26:56:194 -> 3437.00
16:26:56:196 -> 3493.00
16:26:56:208 -> 3522.00
16:26:56:208 -> 3511.00
16:26:56:208 -> 3543.00
16:26:56:208 -> 3452.00
16:26:56:208 -> 3473.00
16:26:56:208 -> 3432.00
16:26:56:208 -> 3450.00
16:26:56:214 -> 3511.00
16:26:56:214 -> 3419.00
16:26:56:214 -> 3407.00
16:26:56:214 -> 3516.00
16:26:56:214 -> 3595.00
16:26:56:214 -> 3472.00
16:26:56:214 -> 3410.00
16:26:56:214 -> 3346.00
16:26:56:223 -> 3383.00
16:26:56:223 -> 3524.00
16:26:56:223 -> 3503.00
16:26:56:223 -> 3474.00
16:26:56:223 -> 3566.00
16:26:56:223 -> 3424.00
16:26:56:223 -> 3477.00
16:26:56:239 -> 3444.00
16:26:56:239 -> 3354.00
16:26:56:239 -> 3383.00
16:26:56:239 -> 3424.00
16:26:56:239 -> 3444.00
16:26:56:242 -> 3474.00
16:26:56:242 -> 3497.00
16:26:56:242 -> 3477.00
16:26:56:242 -> 3488.00
16:26:56:242 -> 3421.00
16:26:56:242 -> 3490.00
16:26:56:242 -> 3477.00
16:26:56:242 -> 3501.00
16:26:56:242 -> 3493.00
16:26:56:242 -> 3478.00
16:26:56:242 -> 3390.00
16:26:56:242 -> 3353.00
16:26:56:243 -> 3325.00
16:26:56:245 -> 3254.00
16:26:56:245 -> 3316.00
16:26:56:246 -> 3508.00
16:26:56:249 -> 3506.00
16:26:56:249 -> 3459.00
16:26:56:250 -> 3437.00
16:26:56:251 -> 3455.00
16:26:56:256 -> 3431.00
16:26:56:256 -> 3541.00
16:26:56:256 -> 3548.00
16:26:56:256 -> 3497.00
16:26:56:268 -> 3592.00
16:26:56:268 -> 3559.00
16:26:56:268 -> 3508.00
16:26:56:268 -> 3439.00
16:26:56:268 -> 3492.00
16:26:56:268 -> 3483.00
16:26:56:268 -> 3419.00
16:26:56:268 -> 3436.00
16:26:56:268 -> 3399.00
16:26:56:268 -> 3473.00
16:26:56:271 -> 3449.00
16:26:56:271 -> 3456.00
16:26:56:273 -> 3427.00
16:26:56:273 -> 3384.00
16:26:56:279 -> 3415.00
16:26:56:279 -> 3470.00
16:26:56:279 -> 3379.00
16:26:56:279 -> 3338.00
16:26:56:279 -> 3457.00
16:26:56:280 -> 3495.00
16:26:56:282 -> 3477.00
16:26:56:282 -> 3564.00
16:26:56:283 -> 3574.00
16:26:56:284 -> 3493.00
16:26:56:287 -> 3532.00
16:26:56:287 -> 3524.00
16:26:56:291 -> 3521.00
16:26:56:291 -> 3481.00
16:26:56:293 -> 3463.00
16:26:56:293 -> 3463.00
16:26:56:293 -> 3485.00
16:26:56:295 -> 3483.00
16:26:56:296 -> 3444.00
16:26:56:296 -> 3500.00
16:26:56:297 -> 3627.00
16:26:56:299 -> 3613.00
16:26:56:300 -> 3474.00
16:26:56:301 -> 3444.00
16:26:56:302 -> 3431.00
16:26:56:303 -> 3475.00
16:26:56:305 -> 3446.00
16:26:56:306 -> 3402.00
16:26:56:307 -> 3442.00
16:26:56:309 -> 3455.00
16:26:56:310 -> 3440.00
16:26:56:322 -> 3443.00
16:26:56:322 -> 3456.00
