16:24:45:961 -> 2716.00
16:24:45:962 -> 2712.00
16:24:45:963 -> 2705.00
16:24:45:964 -> 2722.00
16:24:45:965 -> 2706.00
16:24:45:966 -> 2695.00
16:24:45:967 -> 2688.00
16:24:45:968 -> 2699.00
16:24:45:970 -> 2693.00
16:24:45:971 -> 2661.00
16:24:45:974 -> 2685.00
16:24:45:974 -> 2709.00
16:24:45:989 -> 2692.00
16:24:45:989 -> 2724.00
16:24:45:989 -> 2729.00
16:24:45:989 -> 2736.00
16:24:45:989 -> 2736.00
16:24:45:989 -> 2719.00
16:24:45:989 -> 2719.00
16:24:45:989 -> 2725.00
16:24:45:989 -> 2710.00
16:24:45:989 -> 2671.00
16:24:45:989 -> 2679.00
16:24:45:989 -> 2686.00
16:24:45:989 -> 2638.00
16:24:45:993 -> 2629.00
16:24:45:993 -> 2663.00
16:24:45:995 -> 2694.00
16:24:45:995 -> 2695.00
16:24:45:995 -> 2693.00
16:24:45:999 -> 2691.00
16:24:45:999 -> 2701.00
16:24:45:999 -> 2718.00
16:24:46:000 -> 2714.00
16:24:46:001 -> 2699.00
16:24:46:002 -> 2698.00
16:24:46:003 -> 2674.00
16:24:46:004 -> 2684.00
16:24:46:005 -> 2675.00
16:24:46:006 -> 2654.00
16:24:46:008 -> 2687.00
16:24:46:009 -> 2594.00
16:24:46:010 -> 2669.00
16:24:46:011 -> 2649.00
16:24:46:012 -> 2691.00
16:24:46:014 -> 2715.00
16:24:46:015 -> 2710.00
16:24:46:016 -> 2706.00
16:24:46:017 -> 2691.00
16:24:46:018 -> 2694.00
16:24:46:020 -> 2746.00
16:24:46:021 -> 2734.00
16:24:46:022 -> 2730.00
16:24:46:023 -> 2720.00
16:24:46:025 -> 2697.00
16:24:46:026 -> 2682.00
16:24:46:027 -> 2694.00
16:24:46:028 -> 2685.00
16:24:46:029 -> 2704.00
16:24:46:030 -> 2669.00
16:24:46:031 -> 2698.00
16:24:46:033 -> 2709.00
16:24:46:034 -> 2714.00
16:24:46:035 -> 2705.00
16:24:46:036 -> 2691.00
16:24:46:038 -> 2689.00
16:24:46:039 -> 2753.00
16:24:46:040 -> 2757.00
16:24:46:041 -> 2732.00
16:24:46:042 -> 2726.00
16:24:46:043 -> 2716.00
16:24:46:045 -> 2716.00
16:24:46:046 -> 2697.00
16:24:46:047 -> 2690.00
16:24:46:048 -> 2668.00
16:24:46:049 -> 2698.00
16:24:46:050 -> 2670.00
16:24:46:055 -> 2676.00
16:24:46:055 -> 2677.00
16:24:46:055 -> 2682.00
16:24:46:069 -> 2684.00
16:24:46:069 -> 2672.00
16:24:46:069 -> 2692.00
16:24:46:069 -> 2626.00
16:24:46:069 -> 2689.00
16:24:46:069 -> 2720.00
16:24:46:069 -> 2721.00
16:24:46:069 -> 2711.00
16:24:46:069 -> 2717.00
16:24:46:069 -> 2717.00
16:24:46:069 -> 2676.00
16:24:46:069 -> 2620.00
16:24:46:070 -> 2625.00
16:24:46:071 -> 2687.00
16:24:46:072 -> 2679.00
16:24:46:073 -> 2685.00
16:24:46:074 -> 2706.00
16:24:46:075 -> 2724.00
16:24:46:077 -> 2685.00
16:24:46:078 -> 2689.00
16:24:46:079 -> 2707.00
16:24:46:080 -> 2723.00
16:24:46:081 -> 2696.00
16:24:46:090 -> 2675.00
16:24:46:090 -> 2680.00
16:24:46:090 -> 2716.00
16:24:46:090 -> 2742.00
16:24:46:090 -> 2694.00
16:24:46:090 -> 2662.00
16:24:46:090 -> 2661.00
16:24:46:091 -> 2677.00
16:24:46:092 -> 2669.00
16:24:46:093 -> 2669.00
16:24:46:095 -> 2731.00
16:24:46:096 -> 2728.00
16:24:46:097 -> 2726.00
16:24:46:098 -> 2721.00
16:24:46:099 -> 2774.00
16:24:46:100 -> 2754.00
16:24:46:102 -> 2750.00
16:24:46:103 -> 2709.00
16:24:46:104 -> 2690.00
16:24:46:105 -> 2685.00
16:24:46:106 -> 2688.00
16:24:46:108 -> 2663.00
16:24:46:109 -> 2645.00
16:24:46:110 -> 2662.00
16:24:46:111 -> 2686.00
16:24:46:113 -> 2703.00
16:24:46:114 -> 2695.00
16:24:46:117 -> 2729.00
16:24:46:117 -> 2703.00
16:24:46:117 -> 2660.00
16:24:46:168 -> 2723.00
16:24:46:168 -> 2737.00
16:24:46:168 -> 2736.00
16:24:46:177 -> 2736.00
16:24:46:177 -> 2735.00
16:24:46:177 -> 2711.00
16:24:46:177 -> 2710.00
16:24:46:177 -> 2691.00
16:24:46:177 -> 2648.00
16:24:46:177 -> 2673.00
16:24:46:177 -> 2679.00
16:24:46:177 -> 2654.00
16:24:46:177 -> 2722.00
16:24:46:177 -> 2722.00
16:24:46:177 -> 2711.00
16:24:46:177 -> 2702.00
16:24:46:177 -> 2677.00
16:24:46:177 -> 2717.00
16:24:46:177 -> 2721.00
16:24:46:177 -> 2713.00
16:24:46:177 -> 2722.00
16:24:46:177 -> 2716.00
16:24:46:177 -> 2688.00
16:24:46:177 -> 2709.00
16:24:46:177 -> 2697.00
16:24:46:177 -> 2678.00
16:24:46:177 -> 2679.00
16:24:46:177 -> 2673.00
16:24:46:177 -> 2670.00
16:24:46:177 -> 2672.00
16:24:46:177 -> 2696.00
16:24:46:177 -> 2685.00
16:24:46:177 -> 2674.00
16:24:46:177 -> 2688.00
16:24:46:177 -> 2755.00
16:24:46:177 -> 2731.00
16:24:46:177 -> 2726.00
16:24:46:177 -> 2732.00
16:24:46:177 -> 2709.00
16:24:46:177 -> 2705.00
16:24:46:177 -> 2689.00
16:24:46:177 -> 2695.00
16:24:46:177 -> 2687.00
16:24:46:177 -> 2680.00
16:24:46:177 -> 2662.00
16:24:46:177 -> 2691.00
16:24:46:177 -> 2692.00
16:24:46:177 -> 2685.00
16:24:46:177 -> 2707.00
16:24:46:177 -> 2696.00
16:24:46:180 -> 2705.00
16:24:46:180 -> 2660.00
16:24:46:193 -> 2690.00
16:24:46:193 -> 2740.00
16:24:46:193 -> 2712.00
16:24:46:193 -> 2701.00
16:24:46:193 -> 2675.00
16:24:46:193 -> 2644.00
16:24:46:193 -> 2629.00
16:24:46:193 -> 2640.00
16:24:46:193 -> 2677.00
16:24:46:193 -> 2665.00
16:24:46:193 -> 2679.00
16:24:46:200 -> 2688.00
16:24:46:200 -> 2708.00
16:24:46:200 -> 2682.00
16:24:46:200 -> 2698.00
16:24:46:200 -> 2702.00
16:24:46:200 -> 2724.00
16:24:46:203 -> 2720.00
16:24:46:203 -> 2742.00
16:24:46:204 -> 2736.00
16:24:46:204 -> 2727.00
16:24:46:205 -> 2724.00
16:24:46:206 -> 2678.00
16:24:46:208 -> 2664.00
16:24:46:209 -> 2689.00
16:24:46:210 -> 2638.00
16:24:46:212 -> 2665.00
16:24:46:217 -> 2667.00
16:24:46:217 -> 2688.00
16:24:46:217 -> 2698.00
16:24:46:217 -> 2667.00
16:24:46:226 -> 2721.00
16:24:46:226 -> 2756.00
16:24:46:226 -> 2736.00
16:24:46:238 -> 2693.00
16:24:46:238 -> 2726.00
16:24:46:238 -> 2721.00
16:24:46:238 -> 2708.00
16:24:46:238 -> 2683.00
16:24:46:238 -> 2704.00
16:24:46:238 -> 2685.00
16:24:46:238 -> 2690.00
16:24:46:238 -> 2672.00
16:24:46:238 -> 2685.00
16:24:46:238 -> 2690.00
16:24:46:238 -> 2691.00
16:24:46:238 -> 2694.00
16:24:46:238 -> 2707.00
16:24:46:238 -> 2721.00
16:24:46:251 -> 2746.00
16:24:46:251 -> 2726.00
16:24:46:251 -> 2710.00
16:24:46:251 -> 2712.00
16:24:46:251 -> 2698.00
16:24:46:251 -> 2713.00
16:24:46:251 -> 2705.00
16:24:46:251 -> 2709.00
16:24:46:251 -> 2675.00
16:24:46:251 -> 2657.00
16:24:46:251 -> 2682.00
16:24:46:254 -> 2684.00
16:24:46:254 -> 2688.00
16:24:46:254 -> 2684.00
16:24:46:255 -> 2698.00
16:24:46:256 -> 2687.00
16:24:46:258 -> 2695.00
16:24:46:259 -> 2695.00
16:24:46:261 -> 2702.00
16:24:46:261 -> 2724.00
16:24:46:262 -> 2697.00
16:24:46:263 -> 2695.00
16:24:46:265 -> 2639.00
16:24:46:266 -> 2673.00
16:24:46:267 -> 2682.00
16:24:46:268 -> 2677.00
16:24:46:269 -> 2676.00
16:24:46:271 -> 2660.00
16:24:46:275 -> 2654.00
16:24:46:277 -> 2689.00
16:24:46:277 -> 2660.00
16:24:46:277 -> 2708.00
16:24:46:277 -> 2742.00
16:24:46:279 -> 2738.00
16:24:46:281 -> 2721.00
16:24:46:281 -> 2730.00
16:24:46:282 -> 2720.00
16:24:46:285 -> 2692.00
16:24:46:285 -> 2760.00
16:24:46:297 -> 2708.00
16:24:46:297 -> 2694.00
16:24:46:297 -> 2677.00
16:24:46:297 -> 2628.00
16:24:46:297 -> 2651.00
16:24:46:297 -> 2657.00
16:24:46:297 -> 2687.00
16:24:46:297 -> 2693.00
16:24:46:297 -> 2673.00
16:24:46:297 -> 2668.00
16:24:46:297 -> 2677.00
16:24:46:298 -> 2715.00
16:24:46:299 -> 2737.00
16:24:46:301 -> 2716.00
16:24:46:302 -> 2742.00
16:24:46:303 -> 2738.00
16:24:46:304 -> 2732.00
16:24:46:312 -> 2690.00
16:24:46:312 -> 2687.00
16:24:46:312 -> 2685.00
16:24:46:312 -> 2700.00
16:24:46:312 -> 2701.00
16:24:46:312 -> 2681.00
16:24:46:328 -> 2698.00
16:24:46:328 -> 2711.00
16:24:46:328 -> 2698.00
16:24:46:328 -> 2717.00
16:24:46:328 -> 2714.00
16:24:46:328 -> 2739.00
16:24:46:328 -> 2719.00
16:24:46:328 -> 2728.00
16:24:46:328 -> 2734.00
16:24:46:331 -> 2723.00
16:24:46:331 -> 2714.00
16:24:46:331 -> 2706.00
16:24:46:331 -> 2693.00
16:24:46:331 -> 2649.00
16:24:46:331 -> 2660.00
16:24:46:331 -> 2643.00
16:24:46:331 -> 2669.00
16:24:46:333 -> 2683.00
16:24:46:334 -> 2690.00
16:24:46:335 -> 2670.00
16:24:46:336 -> 2692.00
16:24:46:338 -> 2684.00
16:24:46:340 -> 2755.00
16:24:46:340 -> 2746.00
16:24:46:341 -> 2720.00
16:24:46:342 -> 2731.00
16:24:46:343 -> 2714.00
16:24:46:345 -> 2705.00
16:24:46:346 -> 2688.00
16:24:46:347 -> 2662.00
16:24:46:348 -> 2650.00
16:24:46:349 -> 2659.00
16:24:46:350 -> 2655.00
16:24:46:352 -> 2674.00
16:24:46:353 -> 2671.00
16:24:46:354 -> 2680.00
16:24:46:355 -> 2675.00
16:24:46:356 -> 2676.00
16:24:46:358 -> 2687.00
16:24:46:359 -> 2681.00
16:24:46:360 -> 2671.00
16:24:46:361 -> 2676.00
16:24:46:362 -> 2712.00
16:24:46:364 -> 2685.00
16:24:46:365 -> 2709.00
16:24:46:366 -> 2656.00
16:24:46:367 -> 2664.00
16:24:46:368 -> 2634.00
16:24:46:369 -> 2630.00
16:24:46:371 -> 2667.00
16:24:46:372 -> 2695.00
16:24:46:375 -> 2701.00
16:24:46:376 -> 2662.00
16:24:46:376 -> 2681.00
16:24:46:377 -> 2668.00
16:24:46:378 -> 2694.00
16:24:46:379 -> 2709.00
16:24:46:384 -> 2731.00
16:24:46:384 -> 2719.00
16:24:46:384 -> 2698.00
16:24:46:384 -> 2685.00
16:24:46:385 -> 2712.00
16:24:46:387 -> 2705.00
16:24:46:389 -> 2695.00
16:24:46:389 -> 2670.00
16:24:46:403 -> 2638.00
16:24:46:403 -> 2670.00
16:24:46:403 -> 2696.00
16:24:46:403 -> 2712.00
16:24:46:403 -> 2706.00
16:24:46:403 -> 2720.00
16:24:46:403 -> 2710.00
16:24:46:403 -> 2705.00
16:24:46:403 -> 2697.00
16:24:46:403 -> 2712.00
16:24:46:403 -> 2700.00
16:24:46:403 -> 2714.00
16:24:46:405 -> 2689.00
16:24:46:406 -> 2687.00
16:24:46:406 -> 2648.00
16:24:46:410 -> 2632.00
16:24:46:410 -> 2614.00
16:24:46:441 -> 2677.00
16:24:46:441 -> 2683.00
16:24:46:441 -> 2685.00
16:24:46:445 -> 2688.00
16:24:46:445 -> 2706.00
16:24:46:445 -> 2689.00
16:24:46:445 -> 2718.00
16:24:46:445 -> 2724.00
16:24:46:445 -> 2726.00
16:24:46:445 -> 2727.00
16:24:46:445 -> 2719.00
16:24:46:445 -> 2697.00
16:24:46:445 -> 2703.00
16:24:46:445 -> 2666.00
16:24:46:445 -> 2682.00
16:24:46:445 -> 2628.00
16:24:46:445 -> 2672.00
16:24:46:445 -> 2658.00
16:24:46:445 -> 2651.00
16:24:46:445 -> 2659.00
16:24:46:445 -> 2675.00
16:24:46:445 -> 2712.00
16:24:46:445 -> 2690.00
16:24:46:445 -> 2698.00
16:24:46:445 -> 2677.00
16:24:46:445 -> 2672.00
16:24:46:445 -> 2738.00
16:24:46:445 -> 2714.00
16:24:46:445 -> 2699.00
16:24:46:446 -> 2708.00
16:24:46:446 -> 2694.00
16:24:46:447 -> 2651.00
16:24:46:448 -> 2636.00
16:24:46:449 -> 2600.00
16:24:46:450 -> 2621.00
16:24:46:452 -> 2647.00
16:24:46:453 -> 2652.00
16:24:46:454 -> 2653.00
16:24:46:455 -> 2638.00
16:24:46:456 -> 2687.00
16:24:46:458 -> 2711.00
16:24:46:459 -> 2756.00
16:24:46:460 -> 2751.00
16:24:46:461 -> 2733.00
16:24:46:462 -> 2739.00
16:24:46:463 -> 2725.00
16:24:46:465 -> 2679.00
16:24:46:466 -> 2712.00
16:24:46:467 -> 2678.00
16:24:46:468 -> 2665.00
16:24:46:469 -> 2703.00
16:24:46:471 -> 2669.00
16:24:46:472 -> 2680.00
16:24:46:473 -> 2679.00
16:24:46:474 -> 2688.00
16:24:46:475 -> 2638.00
16:24:46:476 -> 2695.00
16:24:46:478 -> 2687.00
16:24:46:479 -> 2673.00
16:24:46:480 -> 2653.00
16:24:46:481 -> 2700.00
16:24:46:484 -> 2722.00
16:24:46:484 -> 2708.00
16:24:46:485 -> 2727.00
16:24:46:486 -> 2715.00
16:24:46:487 -> 2678.00
16:24:46:488 -> 2685.00
16:24:46:490 -> 2692.00
16:24:46:491 -> 2668.00
16:24:46:492 -> 2685.00
16:24:46:494 -> 2687.00
16:24:46:494 -> 2692.00
16:24:46:496 -> 2669.00
16:24:46:497 -> 2697.00
16:24:46:498 -> 2699.00
16:24:46:499 -> 2683.00
16:24:46:500 -> 2722.00
16:24:46:502 -> 2710.00
16:24:46:503 -> 2696.00
16:24:46:504 -> 2700.00
16:24:46:505 -> 2666.00
16:24:46:507 -> 2669.00
16:24:46:508 -> 2661.00
16:24:46:509 -> 2665.00
16:24:46:510 -> 2670.00
16:24:46:511 -> 2637.00
16:24:46:512 -> 2676.00
16:24:46:514 -> 2688.00
16:24:46:515 -> 2680.00
16:24:46:516 -> 2696.00
16:24:46:517 -> 2688.00
16:24:46:518 -> 2677.00
16:24:46:519 -> 2752.00
16:24:46:526 -> 2769.00
16:24:46:526 -> 2723.00
16:24:46:526 -> 2702.00
16:24:46:526 -> 2713.00
16:24:46:526 -> 2688.00
16:24:46:529 -> 2686.00
16:24:46:529 -> 2683.00
16:24:46:529 -> 2655.00
16:24:46:534 -> 2658.00
16:24:46:534 -> 2628.00
16:24:46:534 -> 2672.00
16:24:46:534 -> 2651.00
16:24:46:559 -> 2701.00
16:24:46:559 -> 2698.00
16:24:46:559 -> 2682.00
16:24:46:559 -> 2652.00
16:24:46:559 -> 2665.00
16:24:46:559 -> 2694.00
16:24:46:559 -> 2700.00
16:24:46:559 -> 2712.00
16:24:46:559 -> 2694.00
16:24:46:559 -> 2683.00
16:24:46:559 -> 2661.00
16:24:46:559 -> 2654.00
16:24:46:559 -> 2622.00
16:24:46:562 -> 2632.00
16:24:46:562 -> 2667.00
16:24:46:562 -> 2701.00
16:24:46:562 -> 2697.00
16:24:46:562 -> 2689.00
16:24:46:562 -> 2710.00
16:24:46:562 -> 2714.00
16:24:46:562 -> 2746.00
16:24:46:562 -> 2743.00
16:24:46:562 -> 2735.00
16:24:46:562 -> 2745.00
16:24:46:564 -> 2680.00
16:24:46:565 -> 2657.00
16:24:46:566 -> 2690.00
16:24:46:568 -> 2662.00
16:24:46:568 -> 2649.00
16:24:46:569 -> 2596.00
16:24:46:571 -> 2680.00
16:24:46:573 -> 2699.00
16:24:46:574 -> 2697.00
16:24:46:577 -> 2663.00
16:24:46:577 -> 2698.00
16:24:46:577 -> 2670.00
16:24:46:579 -> 2674.00
16:24:46:579 -> 2652.00
16:24:46:592 -> 2661.00
16:24:46:592 -> 2685.00
16:24:46:594 -> 2668.00
16:24:46:594 -> 2683.00
16:24:46:594 -> 2661.00
16:24:46:594 -> 2651.00
16:24:46:594 -> 2642.00
16:24:46:594 -> 2658.00
16:24:46:594 -> 2643.00
16:24:46:594 -> 2677.00
16:24:46:594 -> 2665.00
16:24:46:594 -> 2678.00
16:24:46:594 -> 2687.00
16:24:46:596 -> 2669.00
16:24:46:597 -> 2724.00
16:24:46:598 -> 2721.00
16:24:46:599 -> 2725.00
16:24:46:600 -> 2714.00
16:24:46:602 -> 2723.00
16:24:46:604 -> 2709.00
16:24:46:605 -> 2718.00
16:24:46:605 -> 2655.00
16:24:46:606 -> 2650.00
16:24:46:608 -> 2677.00
16:24:46:609 -> 2642.00
16:24:46:610 -> 2670.00
16:24:46:611 -> 2648.00
16:24:46:612 -> 2626.00
16:24:46:614 -> 2648.00
16:24:46:615 -> 2645.00
16:24:46:616 -> 2633.00
16:24:46:617 -> 2700.00
16:24:46:619 -> 2697.00
16:24:46:623 -> 2731.00
16:24:46:623 -> 2722.00
16:24:46:623 -> 2725.00
16:24:46:627 -> 2711.00
16:24:46:627 -> 2712.00
16:24:46:627 -> 2706.00
16:24:46:627 -> 2721.00
16:24:46:647 -> 2672.00
16:24:46:647 -> 2619.00
16:24:46:647 -> 2631.00
16:24:46:647 -> 2655.00
16:24:46:647 -> 2683.00
16:24:46:647 -> 2682.00
16:24:46:647 -> 2686.00
16:24:46:647 -> 2691.00
16:24:46:647 -> 2682.00
16:24:46:647 -> 2716.00
16:24:46:647 -> 2674.00
16:24:46:647 -> 2716.00
16:24:46:647 -> 2718.00
16:24:46:647 -> 2708.00
16:24:46:647 -> 2693.00
16:24:46:647 -> 2713.00
16:24:46:647 -> 2672.00
16:24:46:654 -> 2611.00
16:24:46:654 -> 2607.00
16:24:46:654 -> 2621.00
16:24:46:654 -> 2625.00
16:24:46:654 -> 2657.00
16:24:46:654 -> 2664.00
16:24:46:657 -> 2648.00
16:24:46:657 -> 2650.00
16:24:46:658 -> 2671.00
16:24:46:659 -> 2704.00
16:24:46:660 -> 2717.00
16:24:46:661 -> 2704.00
16:24:46:663 -> 2703.00
16:24:46:664 -> 2710.00
16:24:46:668 -> 2707.00
16:24:46:668 -> 2723.00
16:24:46:668 -> 2696.00
16:24:46:669 -> 2676.00
16:24:46:671 -> 2616.00
16:24:46:671 -> 2633.00
16:24:46:672 -> 2662.00
16:24:46:673 -> 2679.00
16:24:46:674 -> 2685.00
16:24:46:675 -> 2675.00
16:24:46:677 -> 2718.00
16:24:46:678 -> 2704.00
16:24:46:679 -> 2697.00
16:24:46:680 -> 2727.00
16:24:46:681 -> 2683.00
16:24:46:687 -> 2688.00
16:24:46:687 -> 2707.00
16:24:46:687 -> 2683.00
16:24:46:687 -> 2680.00
16:24:46:691 -> 2671.00
16:24:46:691 -> 2645.00
16:24:46:691 -> 2619.00
16:24:46:691 -> 2637.00
16:24:46:692 -> 2666.00
16:24:46:693 -> 2659.00
16:24:46:695 -> 2669.00
16:24:46:696 -> 2685.00
16:24:46:697 -> 2675.00
16:24:46:698 -> 2678.00
16:24:46:699 -> 2664.00
16:24:46:700 -> 2708.00
16:24:46:702 -> 2714.00
16:24:46:703 -> 2713.00
16:24:46:704 -> 2725.00
16:24:46:705 -> 2693.00
16:24:46:706 -> 2697.00
16:24:46:708 -> 2647.00
16:24:46:709 -> 2630.00
16:24:46:710 -> 2613.00
16:24:46:711 -> 2637.00
16:24:46:712 -> 2652.00
16:24:46:713 -> 2663.00
16:24:46:715 -> 2662.00
16:24:46:719 -> 2677.00
16:24:46:719 -> 2674.00
16:24:46:719 -> 2663.00
16:24:46:719 -> 2672.00
16:24:46:725 -> 2698.00
16:24:46:725 -> 2689.00
16:24:46:725 -> 2669.00
16:24:46:725 -> 2685.00
16:24:46:726 -> 2680.00
16:24:46:727 -> 2655.00
16:24:46:728 -> 2666.00
16:24:46:729 -> 2653.00
16:24:46:730 -> 2700.00
16:24:46:731 -> 2663.00
16:24:46:736 -> 2674.00
16:24:46:736 -> 2663.00
16:24:46:736 -> 2651.00
16:24:46:736 -> 2654.00
16:24:46:737 -> 2677.00
16:24:46:738 -> 2710.00
16:24:46:740 -> 2752.00
16:24:46:741 -> 2737.00
16:24:46:742 -> 2753.00
16:24:46:743 -> 2718.00
16:24:46:747 -> 2717.00
16:24:46:747 -> 2675.00
16:24:46:747 -> 2661.00
16:24:46:748 -> 2679.00
16:24:46:750 -> 2657.00
16:24:46:752 -> 2631.00
16:24:46:752 -> 2670.00
16:24:46:753 -> 2662.00
16:24:46:754 -> 2678.00
16:24:46:755 -> 2700.00
16:24:46:756 -> 2712.00
16:24:46:758 -> 2667.00
16:24:46:759 -> 2694.00
16:24:46:760 -> 2689.00
16:24:46:761 -> 2708.00
16:24:46:762 -> 2714.00
16:24:46:763 -> 2702.00
16:24:46:765 -> 2699.00
16:24:46:766 -> 2669.00
16:24:46:767 -> 2661.00
16:24:46:768 -> 2646.00
16:24:46:769 -> 2643.00
16:24:46:771 -> 2638.00
16:24:46:772 -> 2626.00
16:24:46:773 -> 2660.00
16:24:46:774 -> 2663.00
16:24:46:778 -> 2617.00
16:24:46:811 -> 2629.00
16:24:46:811 -> 2691.00
16:24:46:811 -> 2714.00
16:24:46:811 -> 2683.00
16:24:46:811 -> 2682.00
16:24:46:811 -> 2691.00
16:24:46:811 -> 2692.00
16:24:46:811 -> 2721.00
16:24:46:811 -> 2688.00
16:24:46:811 -> 2647.00
16:24:46:811 -> 2623.00
16:24:46:811 -> 2637.00
16:24:46:811 -> 2649.00
16:24:46:811 -> 2641.00
16:24:46:811 -> 2645.00
16:24:46:811 -> 2653.00
16:24:46:811 -> 2662.00
16:24:46:811 -> 2681.00
16:24:46:811 -> 2675.00
16:24:46:811 -> 2667.00
16:24:46:811 -> 2680.00
16:24:46:811 -> 2709.00
16:24:46:811 -> 2720.00
16:24:46:811 -> 2697.00
16:24:46:811 -> 2680.00
16:24:46:811 -> 2657.00
16:24:46:811 -> 2617.00
16:24:46:811 -> 2593.00
16:24:46:811 -> 2609.00
16:24:46:856 -> 2624.00
16:24:46:856 -> 2644.00
16:24:46:856 -> 2639.00
16:24:46:856 -> 2646.00
16:24:46:856 -> 2647.00
16:24:46:856 -> 2647.00
16:24:46:856 -> 2662.00
16:24:46:856 -> 2701.00
16:24:46:856 -> 2716.00
16:24:46:856 -> 2703.00
16:24:46:856 -> 2709.00
16:24:46:856 -> 2712.00
16:24:46:856 -> 2713.00
16:24:46:856 -> 2705.00
16:24:46:856 -> 2643.00
16:24:46:856 -> 2662.00
16:24:46:856 -> 2689.00
16:24:46:856 -> 2674.00
16:24:46:856 -> 2664.00
16:24:46:856 -> 2671.00
16:24:46:856 -> 2648.00
16:24:46:856 -> 2685.00
16:24:46:856 -> 2656.00
16:24:46:856 -> 2730.00
16:24:46:856 -> 2689.00
16:24:46:856 -> 2710.00
16:24:46:856 -> 2737.00
16:24:46:856 -> 2697.00
16:24:46:856 -> 2701.00
16:24:46:856 -> 2706.00
16:24:46:906 -> 2657.00
16:24:46:906 -> 2631.00
16:24:46:906 -> 2606.00
16:24:46:906 -> 2641.00
16:24:46:906 -> 2667.00
16:24:46:906 -> 2659.00
16:24:46:906 -> 2681.00
16:24:46:906 -> 2688.00
16:24:46:906 -> 2664.00
16:24:46:906 -> 2666.00
16:24:46:906 -> 2697.00
16:24:46:906 -> 2709.00
16:24:46:906 -> 2688.00
16:24:46:906 -> 2659.00
16:24:46:906 -> 2675.00
16:24:46:906 -> 2677.00
16:24:46:906 -> 2699.00
16:24:46:906 -> 2683.00
16:24:46:906 -> 2631.00
16:24:46:906 -> 2663.00
16:24:46:906 -> 2639.00
16:24:46:906 -> 2636.00
16:24:46:906 -> 2642.00
16:24:46:906 -> 2643.00
16:24:46:906 -> 2651.00
16:24:46:906 -> 2679.00
16:24:46:906 -> 2701.00
16:24:46:906 -> 2712.00
16:24:46:906 -> 2724.00
16:24:46:906 -> 2712.00
16:24:46:906 -> 2729.00
16:24:46:906 -> 2688.00
16:24:46:906 -> 2684.00
16:24:46:906 -> 2666.00
16:24:46:906 -> 2618.00
16:24:46:906 -> 2624.00
16:24:46:906 -> 2616.00
16:24:46:906 -> 2592.00
16:24:46:906 -> 2612.00
16:24:46:906 -> 2593.00
16:24:46:906 -> 2584.00
16:24:46:906 -> 2598.00
16:24:46:906 -> 2587.00
16:24:46:906 -> 2610.00
16:24:46:906 -> 2600.00
16:24:46:906 -> 2616.00
16:24:46:906 -> 2642.00
16:24:46:906 -> 2662.00
16:24:46:906 -> 2679.00
16:24:46:906 -> 2684.00
16:24:46:922 -> 2701.00
16:24:46:922 -> 2656.00
16:24:46:922 -> 2656.00
16:24:46:922 -> 2663.00
16:24:46:922 -> 2692.00
16:24:46:922 -> 2641.00
16:24:46:922 -> 2652.00
16:24:46:922 -> 2666.00
16:24:46:922 -> 2696.00
16:24:46:922 -> 2663.00
16:24:46:922 -> 2719.00
16:24:46:922 -> 2741.00
16:24:46:922 -> 2713.00
16:24:46:930 -> 2709.00
16:24:46:930 -> 2691.00
16:24:46:930 -> 2693.00
16:24:46:930 -> 2641.00
16:24:46:930 -> 2657.00
16:24:46:930 -> 2642.00
16:24:46:930 -> 2603.00
16:24:46:934 -> 2623.00
16:24:46:934 -> 2593.00
16:24:46:934 -> 2602.00
16:24:46:934 -> 2629.00
16:24:46:987 -> 2638.00
16:24:46:987 -> 2616.00
16:24:46:987 -> 2569.00
16:24:46:987 -> 2647.00
16:24:47:036 -> 2701.00
16:24:47:036 -> 2717.00
16:24:47:036 -> 2741.00
16:24:47:036 -> 2740.00
16:24:47:036 -> 2721.00
16:24:47:036 -> 2728.00
16:24:47:036 -> 2684.00
16:24:47:036 -> 2632.00
16:24:47:036 -> 2669.00
16:24:47:036 -> 2643.00
16:24:47:036 -> 2651.00
16:24:47:036 -> 2642.00
16:24:47:036 -> 2633.00
16:24:47:036 -> 2640.00
16:24:47:036 -> 2666.00
16:24:47:036 -> 2682.00
16:24:47:036 -> 2716.00
16:24:47:036 -> 2725.00
16:24:47:036 -> 2699.00
16:24:47:036 -> 2770.00
16:24:47:036 -> 2760.00
16:24:47:036 -> 2744.00
16:24:47:036 -> 2694.00
16:24:47:036 -> 2655.00
16:24:47:036 -> 2680.00
16:24:47:036 -> 2673.00
16:24:47:036 -> 2683.00
16:24:47:036 -> 2628.00
16:24:47:036 -> 2625.00
16:24:47:036 -> 2629.00
16:24:47:036 -> 2621.00
16:24:47:036 -> 2627.00
16:24:47:036 -> 2677.00
16:24:47:036 -> 2707.00
16:24:47:036 -> 2754.00
16:24:47:036 -> 2734.00
16:24:47:036 -> 2691.00
16:24:47:036 -> 2673.00
16:24:47:036 -> 2669.00
16:24:47:036 -> 2680.00
16:24:47:036 -> 2679.00
16:24:47:036 -> 2681.00
16:24:47:036 -> 2631.00
16:24:47:036 -> 2667.00
16:24:47:036 -> 2609.00
16:24:47:044 -> 2570.00
16:24:47:044 -> 2545.00
16:24:47:044 -> 2562.00
16:24:47:044 -> 2589.00
16:24:47:044 -> 2606.00
16:24:47:044 -> 2538.00
16:24:47:044 -> 2628.00
16:24:47:044 -> 2755.00
16:24:47:044 -> 2755.00
16:24:47:044 -> 2794.00
16:24:47:044 -> 2794.00
16:24:47:044 -> 2740.00
16:24:47:044 -> 2663.00
16:24:47:044 -> 2645.00
16:24:47:044 -> 2617.00
16:24:47:044 -> 2594.00
16:24:47:044 -> 2621.00
16:24:47:044 -> 2600.00
16:24:47:044 -> 2626.00
16:24:47:044 -> 2680.00
16:24:47:044 -> 2663.00
16:24:47:044 -> 2648.00
16:24:47:044 -> 2791.00
16:24:47:044 -> 2785.00
16:24:47:044 -> 2751.00
16:24:47:044 -> 2723.00
16:24:47:044 -> 2692.00
16:24:47:044 -> 2633.00
16:24:47:044 -> 2630.00
16:24:47:044 -> 2552.00
16:24:47:044 -> 2473.00
16:24:47:044 -> 2520.00
16:24:47:044 -> 2541.00
16:24:47:044 -> 2563.00
16:24:47:044 -> 2736.00
16:24:47:044 -> 2798.00
16:24:47:044 -> 2743.00
16:24:47:044 -> 2706.00
16:24:47:044 -> 2725.00
16:24:47:044 -> 2792.00
16:24:47:044 -> 2775.00
16:24:47:044 -> 2772.00
16:24:47:044 -> 2787.00
16:24:47:048 -> 2782.00
16:24:47:048 -> 2765.00
16:24:47:048 -> 2702.00
16:24:47:048 -> 2695.00
16:24:47:061 -> 2629.00
16:24:47:061 -> 2677.00
16:24:47:061 -> 2667.00
16:24:47:061 -> 2558.00
16:24:47:061 -> 2701.00
16:24:47:061 -> 2733.00
16:24:47:061 -> 2685.00
16:24:47:061 -> 2800.00
16:24:47:061 -> 2681.00
16:24:47:061 -> 2682.00
16:24:47:061 -> 2691.00
16:24:47:064 -> 2689.00
16:24:47:065 -> 2679.00
16:24:47:065 -> 2675.00
16:24:47:066 -> 2648.00
16:24:47:067 -> 2596.00
16:24:47:068 -> 2556.00
16:24:47:069 -> 2562.00
16:24:47:071 -> 2646.00
16:24:47:072 -> 2660.00
16:24:47:073 -> 2684.00
16:24:47:074 -> 2657.00
16:24:47:075 -> 2579.00
16:24:47:093 -> 2577.00
16:24:47:093 -> 2647.00
16:24:47:093 -> 2621.00
16:24:47:093 -> 2581.00
16:24:47:093 -> 2611.00
16:24:47:093 -> 2648.00
16:24:47:093 -> 2648.00
16:24:47:093 -> 2660.00
16:24:47:093 -> 2697.00
16:24:47:093 -> 2732.00
16:24:47:093 -> 2692.00
16:24:47:093 -> 2730.00
16:24:47:093 -> 2652.00
16:24:47:093 -> 2664.00
16:24:47:093 -> 2662.00
16:24:47:109 -> 2631.00
16:24:47:109 -> 2589.00
16:24:47:109 -> 2621.00
16:24:47:109 -> 2644.00
16:24:47:109 -> 2641.00
16:24:47:109 -> 2632.00
16:24:47:109 -> 2648.00
16:24:47:109 -> 2724.00
16:24:47:109 -> 2715.00
16:24:47:109 -> 2673.00
16:24:47:109 -> 2656.00
16:24:47:109 -> 2603.00
16:24:47:113 -> 2592.00
16:24:47:113 -> 2588.00
16:24:47:113 -> 2665.00
16:24:47:113 -> 2736.00
16:24:47:115 -> 2689.00
16:24:47:115 -> 2621.00
16:24:47:119 -> 2583.00
16:24:47:119 -> 2708.00
16:24:47:119 -> 2701.00
16:24:47:121 -> 2738.00
16:24:47:121 -> 2676.00
16:24:47:129 -> 2710.00
16:24:47:129 -> 2687.00
16:24:47:129 -> 2678.00
16:24:47:129 -> 2711.00
16:24:47:129 -> 2679.00
16:24:47:129 -> 2640.00
16:24:47:129 -> 2626.00
16:24:47:141 -> 2651.00
16:24:47:141 -> 2667.00
16:24:47:141 -> 2700.00
16:24:47:141 -> 2689.00
16:24:47:141 -> 2697.00
16:24:47:141 -> 2661.00
16:24:47:141 -> 2570.00
16:24:47:141 -> 2539.00
16:24:47:141 -> 2560.00
16:24:47:141 -> 2657.00
16:24:47:143 -> 2757.00
16:24:47:154 -> 2675.00
16:24:47:154 -> 2684.00
16:24:47:154 -> 2609.00
16:24:47:154 -> 2560.00
16:24:47:154 -> 2514.00
16:24:47:154 -> 2482.00
16:24:47:154 -> 2600.00
16:24:47:154 -> 2529.00
16:24:47:154 -> 2551.00
16:24:47:159 -> 2642.00
16:24:47:159 -> 2651.00
16:24:47:159 -> 2619.00
16:24:47:159 -> 2613.00
16:24:47:159 -> 2636.00
16:24:47:170 -> 2652.00
16:24:47:170 -> 2707.00
16:24:47:170 -> 2645.00
16:24:47:170 -> 2553.00
16:24:47:170 -> 2494.00
16:24:47:170 -> 2425.00
16:24:47:170 -> 2321.00
16:24:47:170 -> 2564.00
16:24:47:170 -> 2628.00
16:24:47:175 -> 2507.00
16:24:47:175 -> 2399.00
16:24:47:175 -> 2484.00
16:24:47:175 -> 2422.00
16:24:47:184 -> 2414.00
16:24:47:184 -> 2558.00
16:24:47:184 -> 2705.00
16:24:47:184 -> 2720.00
16:24:47:184 -> 2762.00
16:24:47:184 -> 2690.00
16:24:47:184 -> 2570.00
16:24:47:184 -> 2407.00
16:24:47:186 -> 2389.00
16:24:47:186 -> 2529.00
16:24:47:188 -> 2559.00
16:24:47:190 -> 2542.00
16:24:47:194 -> 2438.00
16:24:47:194 -> 2565.00
16:24:47:194 -> 2802.00
16:24:47:209 -> 2758.00
16:24:47:209 -> 2588.00
16:24:47:209 -> 2615.00
16:24:47:209 -> 2789.00
16:24:47:209 -> 2784.00
16:24:47:209 -> 2751.00
16:24:47:209 -> 2822.00
16:24:47:209 -> 2820.00
16:24:47:209 -> 2758.00
16:24:47:209 -> 2694.00
16:24:47:209 -> 2652.00
16:24:47:219 -> 2638.00
16:24:47:219 -> 2617.00
16:24:47:219 -> 2609.00
16:24:47:219 -> 2687.00
16:24:47:219 -> 2617.00
16:24:47:219 -> 2588.00
16:24:47:219 -> 2714.00
16:24:47:219 -> 2754.00
16:24:47:219 -> 2697.00
16:24:47:219 -> 2606.00
16:24:47:219 -> 2614.00
16:24:47:225 -> 2586.00
16:24:47:225 -> 2671.00
16:24:47:225 -> 2684.00
16:24:47:225 -> 2740.00
16:24:47:225 -> 2725.00
16:24:47:234 -> 2587.00
16:24:47:234 -> 2685.00
16:24:47:234 -> 2734.00
16:24:47:234 -> 2673.00
16:24:47:234 -> 2657.00
16:24:47:234 -> 2635.00
16:24:47:234 -> 2525.00
16:24:47:234 -> 2546.00
16:24:47:252 -> 2529.00
16:24:47:252 -> 2487.00
16:24:47:252 -> 2604.00
16:24:47:252 -> 2773.00
16:24:47:252 -> 2773.00
16:24:47:252 -> 2728.00
16:24:47:252 -> 2510.00
16:24:47:252 -> 2366.00
16:24:47:252 -> 2396.00
16:24:47:252 -> 2491.00
16:24:47:252 -> 2625.00
16:24:47:252 -> 2587.00
16:24:47:252 -> 2590.00
16:24:47:252 -> 2542.00
16:24:47:252 -> 2504.00
16:24:47:281 -> 2507.00
16:24:47:281 -> 2468.00
16:24:47:281 -> 2503.00
16:24:47:281 -> 2374.00
16:24:47:281 -> 2654.00
16:24:47:281 -> 2851.00
16:24:47:281 -> 2757.00
16:24:47:281 -> 2651.00
16:24:47:281 -> 2721.00
16:24:47:281 -> 2728.00
16:24:47:281 -> 2600.00
16:24:47:281 -> 2481.00
16:24:47:281 -> 2698.00
16:24:47:281 -> 2660.00
16:24:47:281 -> 2694.00
16:24:47:281 -> 2764.00
16:24:47:281 -> 2801.00
16:24:47:281 -> 2748.00
16:24:47:281 -> 2606.00
16:24:47:281 -> 2580.00
16:24:47:281 -> 2561.00
16:24:47:281 -> 2517.00
16:24:47:281 -> 2598.00
16:24:47:281 -> 2559.00
16:24:47:287 -> 2703.00
16:24:47:287 -> 2814.00
16:24:47:287 -> 2847.00
16:24:47:287 -> 2746.00
16:24:47:287 -> 2650.00
16:24:47:287 -> 2739.00
16:24:47:297 -> 2727.00
16:24:47:297 -> 2678.00
16:24:47:297 -> 2656.00
16:24:47:297 -> 2527.00
16:24:47:297 -> 2464.00
16:24:47:297 -> 2618.00
16:24:47:297 -> 2684.00
16:24:47:297 -> 2792.00
16:24:47:303 -> 2788.00
16:24:47:303 -> 2578.00
16:24:47:303 -> 2490.00
16:24:47:303 -> 2586.00
16:24:47:303 -> 2751.00
16:24:47:314 -> 2854.00
16:24:47:314 -> 2651.00
16:24:47:314 -> 2573.00
16:24:47:314 -> 2494.00
16:24:47:314 -> 2649.00
16:24:47:314 -> 2662.00
16:24:47:314 -> 2441.00
16:24:47:314 -> 2297.00
16:24:47:314 -> 2531.00
16:24:47:330 -> 2447.00
16:24:47:330 -> 2440.00
16:24:47:330 -> 2528.00
16:24:47:330 -> 2562.00
16:24:47:330 -> 2594.00
16:24:47:330 -> 2529.00
16:24:47:330 -> 2686.00
16:24:47:330 -> 2852.00
16:24:47:330 -> 2929.00
16:24:47:330 -> 3014.00
16:24:47:330 -> 2972.00
16:24:47:330 -> 2829.00
16:24:47:330 -> 2545.00
16:24:47:330 -> 2439.00
16:24:47:337 -> 2551.00
16:24:47:337 -> 2519.00
16:24:47:337 -> 2549.00
16:24:47:337 -> 2586.00
16:24:47:337 -> 2653.00
16:24:47:337 -> 2700.00
16:24:47:356 -> 2654.00
16:24:47:356 -> 2632.00
16:24:47:356 -> 2813.00
16:24:47:356 -> 2648.00
16:24:47:356 -> 2585.00
16:24:47:356 -> 2737.00
16:24:47:356 -> 2700.00
16:24:47:356 -> 2804.00
16:24:47:356 -> 2749.00
16:24:47:356 -> 2690.00
16:24:47:356 -> 2696.00
16:24:47:356 -> 2626.00
16:24:47:356 -> 2628.00
16:24:47:356 -> 2663.00
16:24:47:356 -> 2650.00
16:24:47:366 -> 2601.00
16:24:47:366 -> 2588.00
16:24:47:366 -> 2614.00
16:24:47:366 -> 2573.00
16:24:47:366 -> 2508.00
16:24:47:366 -> 2470.00
16:24:47:366 -> 2674.00
16:24:47:366 -> 2439.00
16:24:47:366 -> 2580.00
16:24:47:369 -> 2543.00
16:24:47:369 -> 2577.00
16:24:47:369 -> 2781.00
16:24:47:378 -> 2775.00
16:24:47:378 -> 2740.00
16:24:47:378 -> 2727.00
16:24:47:378 -> 2730.00
16:24:47:378 -> 2799.00
16:24:47:378 -> 2777.00
16:24:47:378 -> 2736.00
16:24:47:381 -> 2675.00
16:24:47:381 -> 2673.00
16:24:47:405 -> 2753.00
16:24:47:405 -> 2706.00
16:24:47:405 -> 2655.00
16:24:47:405 -> 2660.00
16:24:47:405 -> 2644.00
16:24:47:405 -> 2615.00
16:24:47:405 -> 2611.00
16:24:47:405 -> 2588.00
16:24:47:405 -> 2597.00
16:24:47:405 -> 2733.00
16:24:47:405 -> 2575.00
16:24:47:405 -> 2264.00
16:24:47:405 -> 2412.00
16:24:47:405 -> 2625.00
16:24:47:405 -> 2544.00
16:24:47:405 -> 2552.00
16:24:47:405 -> 2730.00
16:24:47:405 -> 2697.00
16:24:47:405 -> 2606.00
16:24:47:405 -> 2544.00
16:24:47:414 -> 2694.00
16:24:47:414 -> 2646.00
16:24:47:414 -> 2640.00
16:24:47:414 -> 2719.00
16:24:47:414 -> 2769.00
16:24:47:414 -> 2763.00
16:24:47:425 -> 2814.00
16:24:47:425 -> 2759.00
16:24:47:425 -> 2592.00
16:24:47:425 -> 2667.00
16:24:47:425 -> 2593.00
16:24:47:425 -> 2516.00
16:24:47:425 -> 2487.00
16:24:47:425 -> 2563.00
16:24:47:425 -> 2565.00
16:24:47:425 -> 2567.00
16:24:47:433 -> 2680.00
16:24:47:433 -> 2829.00
16:24:47:433 -> 2874.00
16:24:47:433 -> 2976.00
16:24:47:433 -> 2742.00
16:24:47:433 -> 2667.00
16:24:47:433 -> 2538.00
16:24:47:433 -> 2566.00
16:24:47:437 -> 2607.00
16:24:47:437 -> 2603.00
16:24:47:437 -> 2767.00
16:24:47:437 -> 2653.00
16:24:47:441 -> 2544.00
16:24:47:441 -> 2680.00
16:24:47:441 -> 2769.00
16:24:47:450 -> 2950.00
16:24:47:450 -> 2713.00
16:24:47:450 -> 2573.00
16:24:47:454 -> 2611.00
16:24:47:454 -> 2784.00
16:24:47:454 -> 2757.00
16:24:47:454 -> 2608.00
16:24:47:454 -> 2603.00
16:24:47:454 -> 2644.00
16:24:47:454 -> 2691.00
16:24:47:455 -> 2739.00
16:24:47:457 -> 2730.00
16:24:47:457 -> 2641.00
16:24:47:459 -> 2637.00
16:24:47:459 -> 2663.00
16:24:47:466 -> 2641.00
16:24:47:466 -> 2763.00
16:24:47:466 -> 2725.00
16:24:47:466 -> 2653.00
16:24:47:466 -> 2560.00
16:24:47:466 -> 2436.00
16:24:47:467 -> 2570.00
16:24:47:468 -> 2646.00
16:24:47:472 -> 2641.00
16:24:47:472 -> 2684.00
16:24:47:472 -> 2682.00
16:24:47:479 -> 2712.00
16:24:47:479 -> 2667.00
16:24:47:479 -> 2653.00
16:24:47:479 -> 2640.00
16:24:47:479 -> 2650.00
16:24:47:479 -> 2650.00
16:24:47:485 -> 2386.00
16:24:47:485 -> 2421.00
16:24:47:485 -> 2532.00
16:24:47:485 -> 2668.00
16:24:47:485 -> 2856.00
16:24:47:521 -> 2688.00
16:24:47:521 -> 2484.00
16:24:47:521 -> 2397.00
16:24:47:521 -> 2567.00
16:24:47:525 -> 2628.00
16:24:47:525 -> 2793.00
16:24:47:525 -> 2812.00
16:24:47:525 -> 2667.00
16:24:47:525 -> 2765.00
16:24:47:525 -> 2714.00
16:24:47:525 -> 2494.00
16:24:47:525 -> 2514.00
16:24:47:525 -> 2719.00
16:24:47:525 -> 2720.00
16:24:47:525 -> 2748.00
16:24:47:525 -> 2634.00
16:24:47:525 -> 2773.00
16:24:47:525 -> 2790.00
16:24:47:525 -> 2734.00
16:24:47:525 -> 2709.00
16:24:47:525 -> 2655.00
16:24:47:525 -> 2659.00
16:24:47:525 -> 2600.00
16:24:47:525 -> 2505.00
16:24:47:525 -> 2629.00
16:24:47:525 -> 2798.00
16:24:47:525 -> 2712.00
16:24:47:525 -> 2676.00
16:24:47:525 -> 2633.00
16:24:47:525 -> 2493.00
16:24:47:525 -> 2376.00
16:24:47:525 -> 2614.00
16:24:47:525 -> 2803.00
16:24:47:528 -> 2823.00
16:24:47:528 -> 2802.00
16:24:47:528 -> 2782.00
16:24:47:530 -> 2753.00
16:24:47:531 -> 2763.00
16:24:47:531 -> 2791.00
16:24:47:535 -> 2656.00
16:24:47:535 -> 2634.00
16:24:47:535 -> 2685.00
16:24:47:539 -> 2728.00
16:24:47:539 -> 2690.00
16:24:47:539 -> 2667.00
16:24:47:541 -> 2643.00
16:24:47:541 -> 2742.00
16:24:47:551 -> 2646.00
16:24:47:551 -> 2559.00
16:24:47:551 -> 2672.00
16:24:47:551 -> 2816.00
16:24:47:551 -> 2774.00
16:24:47:551 -> 2655.00
16:24:47:551 -> 2592.00
16:24:47:551 -> 2700.00
16:24:47:570 -> 2675.00
16:24:47:570 -> 2697.00
16:24:47:570 -> 2712.00
16:24:47:570 -> 2634.00
16:24:47:570 -> 2488.00
16:24:47:570 -> 2463.00
16:24:47:570 -> 2359.00
16:24:47:570 -> 2503.00
16:24:47:570 -> 2732.00
16:24:47:570 -> 2780.00
16:24:47:570 -> 2627.00
16:24:47:570 -> 2668.00
16:24:47:570 -> 2477.00
16:24:47:570 -> 2559.00
16:24:47:570 -> 2650.00
16:24:47:570 -> 2639.00
16:24:47:583 -> 2623.00
16:24:47:583 -> 2686.00
16:24:47:583 -> 2686.00
16:24:47:583 -> 2662.00
16:24:47:583 -> 2680.00
16:24:47:583 -> 2693.00
16:24:47:583 -> 2641.00
16:24:47:583 -> 2694.00
16:24:47:583 -> 2645.00
16:24:47:583 -> 2506.00
16:24:47:583 -> 2533.00
16:24:47:585 -> 2553.00
16:24:47:585 -> 2800.00
16:24:47:586 -> 2940.00
16:24:47:590 -> 2744.00
16:24:47:597 -> 2695.00
16:24:47:597 -> 2767.00
16:24:47:597 -> 2751.00
16:24:47:597 -> 2658.00
16:24:47:597 -> 2807.00
16:24:47:597 -> 2864.00
16:24:47:597 -> 2774.00
16:24:47:597 -> 2730.00
16:24:47:609 -> 2716.00
16:24:47:609 -> 2714.00
16:24:47:609 -> 2693.00
16:24:47:609 -> 2739.00
16:24:47:609 -> 2735.00
16:24:47:609 -> 2654.00
16:24:47:609 -> 2697.00
16:24:47:609 -> 2610.00
16:24:47:609 -> 2713.00
16:24:47:609 -> 2786.00
16:24:47:610 -> 2709.00
16:24:47:611 -> 2548.00
16:24:47:630 -> 2566.00
16:24:47:652 -> 2689.00
16:24:47:652 -> 2669.00
16:24:47:652 -> 2649.00
16:24:47:652 -> 2725.00
16:24:47:652 -> 2753.00
16:24:47:652 -> 2782.00
16:24:47:652 -> 2714.00
16:24:47:652 -> 2695.00
16:24:47:652 -> 2708.00
16:24:47:652 -> 2735.00
16:24:47:652 -> 2739.00
16:24:47:652 -> 2737.00
16:24:47:652 -> 2581.00
16:24:47:652 -> 2599.00
16:24:47:652 -> 2541.00
16:24:47:652 -> 2528.00
16:24:47:652 -> 2496.00
16:24:47:652 -> 2526.00
16:24:47:652 -> 2644.00
16:24:47:652 -> 2673.00
16:24:47:652 -> 2600.00
16:24:47:652 -> 2687.00
16:24:47:652 -> 2841.00
16:24:47:652 -> 2726.00
16:24:47:652 -> 2710.00
16:24:47:652 -> 2596.00
16:24:47:652 -> 2471.00
16:24:47:655 -> 2486.00
16:24:47:655 -> 2644.00
16:24:47:655 -> 2630.00
16:24:47:655 -> 2643.00
16:24:47:655 -> 2609.00
16:24:47:655 -> 2631.00
16:24:47:655 -> 2592.00
16:24:47:655 -> 2601.00
16:24:47:655 -> 2732.00
16:24:47:656 -> 2685.00
16:24:47:657 -> 2666.00
16:24:47:658 -> 2703.00
16:24:47:660 -> 2773.00
16:24:47:661 -> 2969.00
16:24:47:663 -> 2795.00
16:24:47:668 -> 2797.00
16:24:47:670 -> 2702.00
16:24:47:670 -> 2684.00
16:24:47:670 -> 2739.00
16:24:47:670 -> 2822.00
16:24:47:670 -> 2719.00
16:24:47:670 -> 2630.00
16:24:47:672 -> 2745.00
16:24:47:673 -> 2736.00
16:24:47:674 -> 2510.00
16:24:47:676 -> 2724.00
16:24:47:679 -> 2752.00
16:24:47:679 -> 2620.00
16:24:47:679 -> 2698.00
16:24:47:685 -> 2721.00
16:24:47:685 -> 2751.00
16:24:47:685 -> 2803.00
16:24:47:685 -> 2807.00
16:24:47:685 -> 2734.00
16:24:47:686 -> 2657.00
16:24:47:687 -> 2611.00
16:24:47:688 -> 2688.00
16:24:47:689 -> 2718.00
16:24:47:691 -> 2669.00
16:24:47:692 -> 2570.00
16:24:47:703 -> 2542.00
16:24:47:716 -> 2515.00
16:24:47:716 -> 2414.00
16:24:47:716 -> 2396.00
16:24:47:716 -> 2712.00
16:24:47:716 -> 3026.00
16:24:47:716 -> 2924.00
16:24:47:716 -> 2730.00
16:24:47:716 -> 2712.00
16:24:47:716 -> 2727.00
16:24:47:716 -> 2778.00
16:24:47:716 -> 2649.00
16:24:47:716 -> 2597.00
16:24:47:716 -> 2558.00
16:24:47:716 -> 2657.00
16:24:47:716 -> 2706.00
16:24:47:716 -> 2684.00
16:24:47:716 -> 2678.00
16:24:47:716 -> 2607.00
16:24:47:716 -> 2544.00
16:24:47:728 -> 2642.00
16:24:47:728 -> 2656.00
16:24:47:728 -> 2702.00
16:24:47:728 -> 2819.00
16:24:47:728 -> 2789.00
16:24:47:728 -> 2734.00
16:24:47:728 -> 2731.00
16:24:47:728 -> 2759.00
16:24:47:728 -> 2722.00
16:24:47:728 -> 2652.00
16:24:47:736 -> 2623.00
16:24:47:736 -> 2598.00
16:24:47:736 -> 2570.00
16:24:47:736 -> 2480.00
16:24:47:736 -> 2558.00
16:24:47:736 -> 2790.00
16:24:47:774 -> 2632.00
16:24:47:774 -> 2801.00
16:24:47:774 -> 2867.00
16:24:47:774 -> 2805.00
16:24:47:774 -> 2738.00
16:24:47:774 -> 2788.00
16:24:47:774 -> 2764.00
16:24:47:774 -> 2679.00
16:24:47:774 -> 2673.00
16:24:47:774 -> 2696.00
16:24:47:774 -> 2660.00
16:24:47:774 -> 2606.00
16:24:47:774 -> 2671.00
16:24:47:774 -> 2812.00
16:24:47:774 -> 2688.00
16:24:47:774 -> 2710.00
16:24:47:774 -> 2739.00
16:24:47:774 -> 2782.00
16:24:47:774 -> 2664.00
16:24:47:774 -> 2698.00
16:24:47:774 -> 2756.00
16:24:47:774 -> 2776.00
16:24:47:774 -> 2655.00
16:24:47:774 -> 2749.00
16:24:47:774 -> 2647.00
16:24:47:774 -> 2685.00
16:24:47:774 -> 2856.00
16:24:47:774 -> 2733.00
16:24:47:774 -> 2610.00
16:24:47:815 -> 2677.00
16:24:47:815 -> 2622.00
16:24:47:815 -> 2521.00
16:24:47:815 -> 2580.00
16:24:47:815 -> 2574.00
16:24:47:815 -> 2530.00
16:24:47:815 -> 2532.00
16:24:47:815 -> 2662.00
16:24:47:815 -> 2915.00
16:24:47:815 -> 2834.00
16:24:47:815 -> 2745.00
16:24:47:815 -> 2742.00
16:24:47:815 -> 2672.00
16:24:47:815 -> 2644.00
16:24:47:815 -> 2875.00
16:24:47:815 -> 2866.00
16:24:47:815 -> 2688.00
16:24:47:815 -> 2518.00
16:24:47:815 -> 2530.00
16:24:47:815 -> 2547.00
16:24:47:815 -> 2721.00
16:24:47:815 -> 2746.00
16:24:47:815 -> 2714.00
16:24:47:815 -> 2538.00
16:24:47:815 -> 2545.00
16:24:47:815 -> 2577.00
16:24:47:815 -> 2669.00
16:24:47:815 -> 2903.00
16:24:47:815 -> 2987.00
16:24:47:815 -> 2782.00
16:24:47:815 -> 2608.00
16:24:47:815 -> 2523.00
16:24:47:815 -> 2818.00
16:24:47:815 -> 2952.00
16:24:47:815 -> 2816.00
16:24:47:815 -> 2757.00
16:24:47:815 -> 2697.00
16:24:47:815 -> 2660.00
16:24:47:863 -> 2689.00
16:24:47:863 -> 2696.00
16:24:47:863 -> 2711.00
16:24:47:863 -> 2773.00
16:24:47:863 -> 2771.00
16:24:47:863 -> 2691.00
16:24:47:863 -> 2710.00
16:24:47:863 -> 2656.00
16:24:47:863 -> 2624.00
16:24:47:863 -> 2753.00
16:24:47:863 -> 2822.00
16:24:47:863 -> 2802.00
16:24:47:863 -> 2721.00
16:24:47:863 -> 2652.00
16:24:47:863 -> 2735.00
16:24:47:863 -> 2767.00
16:24:47:863 -> 2765.00
16:24:47:863 -> 2699.00
16:24:47:863 -> 2656.00
16:24:47:863 -> 2565.00
16:24:47:863 -> 2648.00
16:24:47:863 -> 2629.00
16:24:47:863 -> 2744.00
16:24:47:863 -> 2879.00
16:24:47:863 -> 2737.00
16:24:47:863 -> 2647.00
16:24:47:863 -> 2656.00
16:24:47:863 -> 2683.00
16:24:47:863 -> 2700.00
16:24:47:863 -> 2635.00
16:24:47:863 -> 2732.00
16:24:47:863 -> 2656.00
16:24:47:863 -> 2552.00
16:24:47:863 -> 2522.00
16:24:47:863 -> 2357.00
16:24:47:863 -> 2358.00
16:24:47:863 -> 2330.00
16:24:47:863 -> 2582.00
16:24:47:863 -> 2739.00
16:24:47:863 -> 2897.00
16:24:47:882 -> 2950.00
16:24:47:882 -> 2843.00
16:24:47:882 -> 2776.00
16:24:47:882 -> 2844.00
16:24:47:882 -> 2862.00
16:24:47:882 -> 2680.00
16:24:47:882 -> 2705.00
16:24:47:882 -> 2827.00
16:24:47:882 -> 2819.00
16:24:47:882 -> 2672.00
16:24:47:882 -> 2621.00
16:24:47:882 -> 2637.00
16:24:47:882 -> 2546.00
16:24:47:882 -> 2345.00
16:24:47:882 -> 2665.00
16:24:47:882 -> 2810.00
16:24:47:932 -> 2965.00
16:24:47:932 -> 2949.00
16:24:47:932 -> 2776.00
16:24:47:932 -> 2770.00
16:24:47:932 -> 2770.00
16:24:47:932 -> 2800.00
16:24:47:932 -> 2677.00
16:24:47:932 -> 2649.00
16:24:47:932 -> 2687.00
16:24:47:932 -> 2708.00
16:24:47:932 -> 2672.00
16:24:47:932 -> 2719.00
16:24:47:932 -> 2792.00
16:24:47:932 -> 2716.00
16:24:47:932 -> 2656.00
16:24:47:932 -> 2744.00
16:24:47:932 -> 2808.00
16:24:47:932 -> 2794.00
16:24:47:932 -> 2832.00
16:24:47:932 -> 2797.00
16:24:47:932 -> 2720.00
16:24:47:932 -> 2674.00
16:24:47:932 -> 2724.00
16:24:47:932 -> 2723.00
16:24:47:932 -> 2723.00
16:24:47:932 -> 2796.00
16:24:47:932 -> 2711.00
16:24:47:932 -> 2611.00
16:24:47:932 -> 2620.00
16:24:47:932 -> 2686.00
16:24:47:932 -> 2611.00
16:24:47:932 -> 2700.00
16:24:47:932 -> 2741.00
16:24:47:932 -> 2918.00
16:24:47:932 -> 2801.00
16:24:47:932 -> 2615.00
16:24:47:932 -> 2855.00
16:24:47:932 -> 2825.00
16:24:47:932 -> 2673.00
16:24:47:932 -> 2557.00
16:24:47:932 -> 2495.00
16:24:47:932 -> 2581.00
16:24:47:937 -> 2630.00
16:24:47:937 -> 2576.00
16:24:47:937 -> 2642.00
16:24:47:937 -> 2666.00
16:24:47:949 -> 2489.00
16:24:47:949 -> 2613.00
16:24:47:949 -> 2756.00
16:24:47:949 -> 2771.00
16:24:47:949 -> 2886.00
16:24:47:949 -> 2834.00
16:24:47:949 -> 2776.00
16:24:47:949 -> 2700.00
16:24:47:949 -> 2639.00
16:24:47:949 -> 2672.00
16:24:47:949 -> 2692.00
16:24:47:953 -> 2670.00
16:24:47:953 -> 2709.00
16:24:47:953 -> 2675.00
16:24:47:955 -> 2622.00
16:24:47:955 -> 2668.00
16:24:47:956 -> 2704.00
16:24:47:957 -> 2788.00
16:24:47:958 -> 2807.00
16:24:47:960 -> 2851.00
16:24:47:961 -> 2815.00
16:24:47:962 -> 2692.00
16:24:47:963 -> 2685.00
16:24:47:964 -> 2596.00
16:24:47:966 -> 2505.00
16:24:47:967 -> 2686.00
16:24:47:968 -> 2768.00
16:24:47:969 -> 2768.00
16:24:47:970 -> 2755.00
16:24:47:971 -> 2819.00
16:24:47:973 -> 2786.00
16:24:47:974 -> 2707.00
16:24:47:975 -> 2719.00
16:24:47:976 -> 2742.00
16:24:47:977 -> 2740.00
16:24:47:979 -> 2691.00
16:24:47:980 -> 2801.00
16:24:47:981 -> 2871.00
16:24:47:982 -> 2817.00
16:24:47:983 -> 2789.00
16:24:47:985 -> 2778.00
16:24:47:986 -> 2799.00
16:24:47:987 -> 2746.00
16:24:47:988 -> 2714.00
16:24:47:993 -> 2768.00
16:24:47:993 -> 2747.00
16:24:47:993 -> 2694.00
16:24:47:993 -> 2671.00
16:24:47:996 -> 2718.00
16:24:47:996 -> 2695.00
16:24:48:000 -> 2687.00
16:24:48:000 -> 2633.00
16:24:48:000 -> 2676.00
16:24:48:003 -> 2697.00
16:24:48:003 -> 2779.00
16:24:48:003 -> 2727.00
16:24:48:009 -> 2738.00
16:24:48:009 -> 2789.00
16:24:48:009 -> 2733.00
16:24:48:009 -> 2692.00
16:24:48:009 -> 2594.00
16:24:48:013 -> 2594.00
16:24:48:013 -> 2680.00
16:24:48:013 -> 2651.00
16:24:48:019 -> 2686.00
16:24:48:019 -> 2703.00
16:24:48:019 -> 2761.00
16:24:48:019 -> 2724.00
16:24:48:019 -> 2639.00
16:24:48:019 -> 2687.00
16:24:48:048 -> 2796.00
16:24:48:048 -> 2795.00
16:24:48:048 -> 2752.00
16:24:48:048 -> 2639.00
16:24:48:048 -> 2540.00
16:24:48:048 -> 2534.00
16:24:48:048 -> 2661.00
16:24:48:048 -> 2599.00
16:24:48:048 -> 2757.00
16:24:48:048 -> 2806.00
16:24:48:048 -> 2783.00
16:24:48:048 -> 2856.00
16:24:48:048 -> 2859.00
16:24:48:051 -> 2765.00
16:24:48:051 -> 2743.00
16:24:48:051 -> 2778.00
16:24:48:051 -> 2730.00
16:24:48:051 -> 2780.00
16:24:48:051 -> 2765.00
16:24:48:051 -> 2837.00
16:24:48:051 -> 2905.00
16:24:48:051 -> 2725.00
16:24:48:051 -> 2686.00
16:24:48:051 -> 2785.00
16:24:48:051 -> 2712.00
16:24:48:051 -> 2668.00
16:24:48:051 -> 2656.00
16:24:48:052 -> 2745.00
16:24:48:054 -> 2872.00
16:24:48:055 -> 2826.00
16:24:48:056 -> 2696.00
16:24:48:057 -> 2702.00
16:24:48:058 -> 2647.00
16:24:48:069 -> 2819.00
16:24:48:069 -> 2877.00
16:24:48:069 -> 2767.00
16:24:48:069 -> 2739.00
16:24:48:069 -> 2743.00
16:24:48:069 -> 2723.00
16:24:48:069 -> 2713.00
16:24:48:069 -> 2697.00
16:24:48:069 -> 2646.00
16:24:48:071 -> 2695.00
16:24:48:072 -> 2707.00
16:24:48:079 -> 2665.00
16:24:48:079 -> 2689.00
16:24:48:079 -> 2686.00
16:24:48:079 -> 2673.00
16:24:48:079 -> 2675.00
16:24:48:079 -> 2721.00
16:24:48:091 -> 2678.00
16:24:48:091 -> 2738.00
16:24:48:091 -> 2729.00
16:24:48:091 -> 2660.00
16:24:48:091 -> 2622.00
16:24:48:091 -> 2547.00
16:24:48:091 -> 2637.00
16:24:48:091 -> 2638.00
16:24:48:091 -> 2649.00
16:24:48:091 -> 2699.00
16:24:48:102 -> 2691.00
16:24:48:102 -> 2663.00
16:24:48:102 -> 2719.00
16:24:48:102 -> 2748.00
16:24:48:102 -> 2792.00
16:24:48:102 -> 2776.00
16:24:48:102 -> 2734.00
16:24:48:102 -> 2763.00
16:24:48:102 -> 2756.00
16:24:48:117 -> 2706.00
16:24:48:117 -> 2671.00
16:24:48:117 -> 2661.00
16:24:48:117 -> 2642.00
16:24:48:117 -> 2659.00
16:24:48:117 -> 2602.00
16:24:48:117 -> 2552.00
16:24:48:117 -> 2513.00
16:24:48:117 -> 2636.00
16:24:48:117 -> 2789.00
16:24:48:117 -> 2854.00
16:24:48:117 -> 2801.00
16:24:48:117 -> 2714.00
16:24:48:119 -> 2688.00
16:24:48:120 -> 2714.00
16:24:48:120 -> 2650.00
16:24:48:122 -> 2730.00
16:24:48:128 -> 2799.00
16:24:48:128 -> 2720.00
16:24:48:128 -> 2741.00
16:24:48:128 -> 2714.00
16:24:48:129 -> 2693.00
16:24:48:129 -> 2663.00
16:24:48:130 -> 2692.00
16:24:48:131 -> 2724.00
16:24:48:132 -> 2741.00
16:24:48:133 -> 2773.00
16:24:48:135 -> 2739.00
16:24:48:136 -> 2738.00
16:24:48:137 -> 2767.00
16:24:48:138 -> 2757.00
16:24:48:139 -> 2729.00
16:24:48:141 -> 2727.00
16:24:48:142 -> 2756.00
16:24:48:143 -> 2736.00
16:24:48:144 -> 2702.00
16:24:48:145 -> 2712.00
16:24:48:146 -> 2761.00
16:24:48:148 -> 2709.00
16:24:48:149 -> 2694.00
16:24:48:150 -> 2715.00
16:24:48:151 -> 2762.00
16:24:48:152 -> 2773.00
16:24:48:154 -> 2746.00
16:24:48:155 -> 2752.00
16:24:48:156 -> 2750.00
16:24:48:157 -> 2777.00
16:24:48:158 -> 2825.00
16:24:48:160 -> 2855.00
16:24:48:161 -> 2840.00
16:24:48:162 -> 2820.00
16:24:48:163 -> 2803.00
16:24:48:164 -> 2802.00
16:24:48:166 -> 2781.00
16:24:48:167 -> 2776.00
16:24:48:173 -> 2752.00
16:24:48:173 -> 2755.00
16:24:48:173 -> 2717.00
16:24:48:173 -> 2731.00
16:24:48:175 -> 2746.00
16:24:48:175 -> 2744.00
16:24:48:175 -> 2765.00
16:24:48:176 -> 2755.00
16:24:48:177 -> 2790.00
16:24:48:179 -> 2788.00
16:24:48:180 -> 2818.00
16:24:48:181 -> 2786.00
16:24:48:182 -> 2821.00
16:24:48:184 -> 2779.00
16:24:48:185 -> 2778.00
16:24:48:186 -> 2742.00
16:24:48:187 -> 2736.00
16:24:48:189 -> 2716.00
16:24:48:195 -> 2707.00
16:24:48:195 -> 2726.00
16:24:48:195 -> 2708.00
16:24:48:195 -> 2724.00
16:24:48:195 -> 2752.00
16:24:48:195 -> 2759.00
16:24:48:196 -> 2749.00
16:24:48:198 -> 2739.00
16:24:48:200 -> 2761.00
16:24:48:201 -> 2764.00
16:24:48:201 -> 2761.00
16:24:48:202 -> 2805.00
16:24:48:204 -> 2804.00
16:24:48:205 -> 2768.00
16:24:48:206 -> 2763.00
16:24:48:207 -> 2731.00
16:24:48:208 -> 2695.00
16:24:48:210 -> 2663.00
16:24:48:211 -> 2716.00
16:24:48:212 -> 2736.00
16:24:48:213 -> 2744.00
16:24:48:214 -> 2733.00
16:24:48:216 -> 2737.00
16:24:48:217 -> 2776.00
16:24:48:218 -> 2768.00
16:24:48:219 -> 2781.00
16:24:48:220 -> 2764.00
16:24:48:222 -> 2769.00
16:24:48:225 -> 2799.00
16:24:48:225 -> 2785.00
16:24:48:226 -> 2750.00
16:24:48:227 -> 2759.00
16:24:48:227 -> 2749.00
16:24:48:229 -> 2727.00
16:24:48:230 -> 2735.00
16:24:48:231 -> 2712.00
16:24:48:232 -> 2739.00
16:24:48:233 -> 2728.00
16:24:48:235 -> 2740.00
16:24:48:236 -> 2737.00
16:24:48:239 -> 2757.00
16:24:48:239 -> 2738.00
16:24:48:251 -> 2718.00
16:24:48:251 -> 2770.00
16:24:48:251 -> 2730.00
16:24:48:251 -> 2724.00
16:24:48:251 -> 2721.00
16:24:48:251 -> 2737.00
16:24:48:251 -> 2754.00
16:24:48:251 -> 2729.00
16:24:48:251 -> 2662.00
16:24:48:251 -> 2631.00
16:24:48:254 -> 2707.00
16:24:48:254 -> 2752.00
16:24:48:254 -> 2703.00
16:24:48:255 -> 2644.00
16:24:48:256 -> 2763.00
16:24:48:257 -> 2791.00
16:24:48:258 -> 2758.00
16:24:48:260 -> 2781.00
16:24:48:261 -> 2800.00
16:24:48:262 -> 2834.00
16:24:48:263 -> 2827.00
16:24:48:264 -> 2807.00
16:24:48:266 -> 2802.00
16:24:48:267 -> 2803.00
16:24:48:268 -> 2782.00
16:24:48:269 -> 2724.00
16:24:48:270 -> 2715.00
16:24:48:271 -> 2728.00
16:24:48:273 -> 2754.00
16:24:48:274 -> 2766.00
16:24:48:275 -> 2777.00
16:24:48:277 -> 2798.00
16:24:48:278 -> 2731.00
16:24:48:281 -> 2790.00
16:24:48:281 -> 2771.00
16:24:48:283 -> 2797.00
16:24:48:283 -> 2802.00
16:24:48:293 -> 2774.00
16:24:48:293 -> 2768.00
16:24:48:293 -> 2761.00
16:24:48:293 -> 2735.00
16:24:48:293 -> 2721.00
16:24:48:293 -> 2699.00
16:24:48:293 -> 2745.00
16:24:48:293 -> 2755.00
16:24:48:293 -> 2727.00
16:24:48:295 -> 2745.00
16:24:48:296 -> 2746.00
16:24:48:297 -> 2752.00
16:24:48:298 -> 2767.00
16:24:48:299 -> 2772.00
16:24:48:300 -> 2768.00
16:24:48:301 -> 2757.00
16:24:48:314 -> 2753.00
16:24:48:314 -> 2764.00
16:24:48:314 -> 2773.00
16:24:48:314 -> 2780.00
16:24:48:314 -> 2759.00
16:24:48:314 -> 2737.00
16:24:48:314 -> 2664.00
16:24:48:314 -> 2669.00
16:24:48:314 -> 2650.00
16:24:48:314 -> 2697.00
16:24:48:315 -> 2700.00
16:24:48:315 -> 2719.00
16:24:48:317 -> 2719.00
16:24:48:318 -> 2740.00
16:24:48:319 -> 2753.00
16:24:48:320 -> 2822.00
16:24:48:321 -> 2803.00
16:24:48:323 -> 2801.00
16:24:48:324 -> 2804.00
16:24:48:325 -> 2798.00
16:24:48:326 -> 2762.00
16:24:48:327 -> 2773.00
16:24:48:329 -> 2746.00
16:24:48:330 -> 2747.00
16:24:48:331 -> 2695.00
16:24:48:332 -> 2761.00
16:24:48:333 -> 2685.00
16:24:48:335 -> 2628.00
16:24:48:336 -> 2682.00
16:24:48:337 -> 2661.00
16:24:48:338 -> 2707.00
16:24:48:339 -> 2747.00
16:24:48:340 -> 2846.00
16:24:48:342 -> 2839.00
16:24:48:343 -> 2865.00
16:24:48:344 -> 2833.00
16:24:48:345 -> 2803.00
16:24:48:346 -> 2822.00
16:24:48:348 -> 2787.00
16:24:48:349 -> 2755.00
16:24:48:350 -> 2737.00
16:24:48:351 -> 2761.00
16:24:48:352 -> 2769.00
16:24:48:354 -> 2776.00
16:24:48:355 -> 2787.00
16:24:48:356 -> 2750.00
16:24:48:357 -> 2768.00
16:24:48:358 -> 2760.00
16:24:48:360 -> 2764.00
16:24:48:361 -> 2802.00
16:24:48:362 -> 2801.00
16:24:48:363 -> 2791.00
16:24:48:364 -> 2783.00
16:24:48:366 -> 2804.00
16:24:48:367 -> 2763.00
16:24:48:368 -> 2782.00
16:24:48:369 -> 2756.00
16:24:48:370 -> 2712.00
16:24:48:371 -> 2733.00
16:24:48:373 -> 2723.00
16:24:48:374 -> 2749.00
16:24:48:375 -> 2755.00
16:24:48:376 -> 2767.00
16:24:48:377 -> 2773.00
16:24:48:379 -> 2769.00
16:24:48:380 -> 2744.00
16:24:48:381 -> 2742.00
16:24:48:382 -> 2767.00
16:24:48:383 -> 2758.00
16:24:48:385 -> 2738.00
16:24:48:386 -> 2739.00
16:24:48:387 -> 2738.00
16:24:48:406 -> 2736.00
16:24:48:406 -> 2718.00
16:24:48:406 -> 2741.00
16:24:48:406 -> 2734.00
16:24:48:410 -> 2742.00
16:24:48:410 -> 2751.00
16:24:48:410 -> 2781.00
16:24:48:410 -> 2755.00
16:24:48:410 -> 2782.00
16:24:48:410 -> 2795.00
16:24:48:410 -> 2796.00
16:24:48:410 -> 2777.00
16:24:48:410 -> 2771.00
16:24:48:410 -> 2792.00
16:24:48:410 -> 2775.00
16:24:48:410 -> 2758.00
16:24:48:410 -> 2753.00
16:24:48:410 -> 2777.00
16:24:48:410 -> 2746.00
16:24:48:422 -> 2745.00
16:24:48:422 -> 2721.00
16:24:48:422 -> 2719.00
16:24:48:422 -> 2747.00
16:24:48:422 -> 2756.00
16:24:48:422 -> 2756.00
16:24:48:422 -> 2797.00
16:24:48:422 -> 2792.00
16:24:48:422 -> 2784.00
16:24:48:422 -> 2798.00
16:24:48:430 -> 2829.00
16:24:48:430 -> 2826.00
16:24:48:430 -> 2801.00
16:24:48:430 -> 2797.00
16:24:48:430 -> 2769.00
16:24:48:430 -> 2693.00
16:24:48:445 -> 2700.00
16:24:48:445 -> 2704.00
16:24:48:445 -> 2706.00
16:24:48:445 -> 2739.00
16:24:48:445 -> 2706.00
16:24:48:445 -> 2781.00
16:24:48:445 -> 2775.00
16:24:48:445 -> 2781.00
16:24:48:445 -> 2833.00
16:24:48:445 -> 2828.00
16:24:48:445 -> 2851.00
16:24:48:445 -> 2865.00
16:24:48:445 -> 2825.00
16:24:48:463 -> 2815.00
16:24:48:463 -> 2799.00
16:24:48:463 -> 2760.00
16:24:48:463 -> 2775.00
16:24:48:463 -> 2765.00
16:24:48:463 -> 2728.00
16:24:48:463 -> 2752.00
16:24:48:463 -> 2757.00
16:24:48:463 -> 2788.00
16:24:48:463 -> 2793.00
16:24:48:463 -> 2821.00
16:24:48:463 -> 2804.00
16:24:48:463 -> 2839.00
16:24:48:463 -> 2828.00
16:24:48:463 -> 2816.00
16:24:48:472 -> 2829.00
16:24:48:472 -> 2794.00
16:24:48:472 -> 2789.00
16:24:48:472 -> 2789.00
16:24:48:472 -> 2778.00
16:24:48:472 -> 2774.00
16:24:48:472 -> 2752.00
16:24:48:472 -> 2705.00
16:24:48:474 -> 2787.00
16:24:48:474 -> 2767.00
16:24:48:475 -> 2746.00
16:24:48:481 -> 2767.00
16:24:48:481 -> 2738.00
16:24:48:481 -> 2776.00
16:24:48:481 -> 2787.00
16:24:48:484 -> 2787.00
16:24:48:484 -> 2802.00
16:24:48:484 -> 2773.00
16:24:48:537 -> 2794.00
16:24:48:537 -> 2781.00
16:24:48:537 -> 2776.00
16:24:48:537 -> 2771.00
16:24:48:537 -> 2731.00
16:24:48:537 -> 2748.00
16:24:48:537 -> 2770.00
16:24:48:537 -> 2782.00
16:24:48:537 -> 2783.00
16:24:48:537 -> 2786.00
16:24:48:537 -> 2787.00
16:24:48:537 -> 2796.00
16:24:48:537 -> 2778.00
16:24:48:537 -> 2800.00
16:24:48:537 -> 2822.00
16:24:48:537 -> 2806.00
16:24:48:537 -> 2814.00
16:24:48:537 -> 2828.00
16:24:48:537 -> 2798.00
16:24:48:537 -> 2791.00
16:24:48:537 -> 2761.00
16:24:48:537 -> 2731.00
16:24:48:537 -> 2794.00
16:24:48:537 -> 2760.00
16:24:48:537 -> 2791.00
16:24:48:537 -> 2819.00
16:24:48:537 -> 2769.00
16:24:48:537 -> 2802.00
16:24:48:537 -> 2788.00
16:24:48:537 -> 2765.00
16:24:48:537 -> 2817.00
16:24:48:537 -> 2775.00
16:24:48:537 -> 2765.00
16:24:48:537 -> 2764.00
16:24:48:537 -> 2793.00
16:24:48:537 -> 2849.00
16:24:48:537 -> 2814.00
16:24:48:537 -> 2777.00
16:24:48:537 -> 2783.00
16:24:48:537 -> 2773.00
16:24:48:537 -> 2785.00
16:24:48:537 -> 2822.00
16:24:48:537 -> 2841.00
16:24:48:537 -> 2834.00
16:24:48:537 -> 2832.00
16:24:48:615 -> 2803.00
16:24:48:615 -> 2806.00
16:24:48:615 -> 2856.00
16:24:48:615 -> 2803.00
16:24:48:615 -> 2823.00
16:24:48:615 -> 2807.00
16:24:48:615 -> 2793.00
16:24:48:615 -> 2774.00
16:24:48:615 -> 2761.00
16:24:48:615 -> 2763.00
16:24:48:615 -> 2752.00
16:24:48:615 -> 2772.00
16:24:48:615 -> 2780.00
16:24:48:615 -> 2793.00
16:24:48:615 -> 2793.00
16:24:48:615 -> 2813.00
16:24:48:615 -> 2792.00
16:24:48:615 -> 2827.00
16:24:48:615 -> 2812.00
16:24:48:615 -> 2780.00
16:24:48:650 -> 2814.00
16:24:48:650 -> 2778.00
16:24:48:650 -> 2836.00
16:24:48:650 -> 2819.00
16:24:48:650 -> 2817.00
16:24:48:650 -> 2789.00
16:24:48:650 -> 2761.00
16:24:48:650 -> 2753.00
16:24:48:650 -> 2758.00
16:24:48:650 -> 2765.00
16:24:48:650 -> 2788.00
16:24:48:650 -> 2753.00
16:24:48:650 -> 2717.00
16:24:48:650 -> 2698.00
16:24:48:650 -> 2661.00
16:24:48:650 -> 2698.00
16:24:48:650 -> 2743.00
16:24:48:650 -> 2737.00
16:24:48:650 -> 2761.00
16:24:48:650 -> 2772.00
16:24:48:650 -> 2822.00
16:24:48:650 -> 2830.00
16:24:48:650 -> 2856.00
16:24:48:650 -> 2841.00
16:24:48:650 -> 2827.00
16:24:48:650 -> 2792.00
16:24:48:650 -> 2817.00
16:24:48:650 -> 2799.00
16:24:48:650 -> 2788.00
16:24:48:650 -> 2797.00
16:24:48:650 -> 2853.00
16:24:48:650 -> 2878.00
16:24:48:650 -> 2834.00
16:24:48:650 -> 2859.00
16:24:48:650 -> 2843.00
16:24:48:650 -> 2842.00
16:24:48:650 -> 2795.00
16:24:48:650 -> 2815.00
16:24:48:650 -> 2768.00
16:24:48:650 -> 2732.00
16:24:48:650 -> 2711.00
16:24:48:650 -> 2744.00
16:24:48:650 -> 2777.00
16:24:48:650 -> 2798.00
16:24:48:650 -> 2793.00
16:24:48:650 -> 2817.00
16:24:48:650 -> 2817.00
16:24:48:650 -> 2799.00
16:24:48:650 -> 2836.00
16:24:48:650 -> 2856.00
16:24:48:650 -> 2845.00
16:24:48:650 -> 2843.00
16:24:48:650 -> 2853.00
16:24:48:650 -> 2829.00
16:24:48:650 -> 2837.00
16:24:48:650 -> 2800.00
16:24:48:650 -> 2772.00
16:24:48:650 -> 2759.00
16:24:48:650 -> 2785.00
16:24:48:650 -> 2789.00
16:24:48:650 -> 2787.00
16:24:48:650 -> 2800.00
16:24:48:650 -> 2825.00
16:24:48:650 -> 2788.00
16:24:48:650 -> 2799.00
16:24:48:650 -> 2805.00
16:24:48:650 -> 2844.00
16:24:48:650 -> 2840.00
16:24:48:650 -> 2844.00
16:24:48:650 -> 2827.00
16:24:48:650 -> 2821.00
16:24:48:650 -> 2777.00
16:24:48:657 -> 2774.00
16:24:48:657 -> 2772.00
16:24:48:657 -> 2766.00
16:24:48:657 -> 2787.00
16:24:48:657 -> 2797.00
16:24:48:657 -> 2782.00
16:24:48:657 -> 2793.00
16:24:48:657 -> 2797.00
16:24:48:666 -> 2790.00
16:24:48:666 -> 2799.00
16:24:48:666 -> 2765.00
16:24:48:666 -> 2788.00
16:24:48:666 -> 2824.00
16:24:48:666 -> 2830.00
16:24:48:666 -> 2842.00
16:24:48:666 -> 2804.00
16:24:48:669 -> 2828.00
16:24:48:669 -> 2760.00
16:24:48:670 -> 2732.00
16:24:48:683 -> 2727.00
16:24:48:683 -> 2771.00
16:24:48:683 -> 2787.00
16:24:48:683 -> 2789.00
16:24:48:683 -> 2792.00
16:24:48:683 -> 2774.00
16:24:48:683 -> 2743.00
16:24:48:683 -> 2744.00
16:24:48:683 -> 2841.00
16:24:48:683 -> 2847.00
16:24:48:683 -> 2894.00
16:24:48:686 -> 2915.00
16:24:48:686 -> 2850.00
16:24:48:686 -> 2838.00
16:24:48:687 -> 2802.00
16:24:48:690 -> 2799.00
16:24:48:690 -> 2779.00
16:24:48:692 -> 2831.00
16:24:48:692 -> 2773.00
16:24:48:693 -> 2800.00
16:24:48:694 -> 2814.00
16:24:48:695 -> 2787.00
16:24:48:696 -> 2770.00
16:24:48:698 -> 2786.00
16:24:48:699 -> 2805.00
16:24:48:700 -> 2850.00
16:24:48:701 -> 2859.00
16:24:48:702 -> 2841.00
16:24:48:704 -> 2884.00
16:24:48:705 -> 2857.00
16:24:48:706 -> 2845.00
16:24:48:707 -> 2832.00
16:24:48:708 -> 2806.00
16:24:48:709 -> 2845.00
16:24:48:711 -> 2765.00
16:24:48:712 -> 2790.00
16:24:48:713 -> 2835.00
16:24:48:714 -> 2826.00
16:24:48:715 -> 2810.00
16:24:48:717 -> 2786.00
16:24:48:718 -> 2792.00
16:24:48:719 -> 2835.00
16:24:48:723 -> 2853.00
16:24:48:723 -> 2851.00
16:24:48:723 -> 2864.00
16:24:48:724 -> 2870.00
16:24:48:725 -> 2833.00
16:24:48:726 -> 2831.00
16:24:48:727 -> 2838.00
16:24:48:729 -> 2786.00
16:24:48:730 -> 2745.00
16:24:48:731 -> 2773.00
16:24:48:733 -> 2825.00
16:24:48:734 -> 2819.00
16:24:48:734 -> 2812.00
16:24:48:740 -> 2822.00
16:24:48:740 -> 2800.00
16:24:48:740 -> 2773.00
16:24:48:740 -> 2815.00
16:24:48:762 -> 2823.00
16:24:48:762 -> 2861.00
16:24:48:762 -> 2856.00
16:24:48:762 -> 2831.00
16:24:48:762 -> 2841.00
16:24:48:762 -> 2792.00
16:24:48:762 -> 2791.00
16:24:48:762 -> 2788.00
16:24:48:762 -> 2782.00
16:24:48:762 -> 2759.00
16:24:48:762 -> 2798.00
16:24:48:762 -> 2816.00
16:24:48:762 -> 2819.00
16:24:48:762 -> 2841.00
16:24:48:762 -> 2809.00
16:24:48:762 -> 2802.00
16:24:48:762 -> 2819.00
16:24:48:762 -> 2834.00
16:24:48:762 -> 2855.00
16:24:48:774 -> 2845.00
16:24:48:774 -> 2839.00
16:24:48:774 -> 2823.00
16:24:48:774 -> 2813.00
16:24:48:774 -> 2779.00
16:24:48:774 -> 2751.00
16:24:48:774 -> 2726.00
16:24:48:774 -> 2769.00
16:24:48:774 -> 2805.00
16:24:48:774 -> 2786.00
16:24:48:780 -> 2807.00
16:24:48:780 -> 2817.00
16:24:48:780 -> 2815.00
16:24:48:780 -> 2789.00
16:24:48:780 -> 2791.00
16:24:48:783 -> 2798.00
16:24:48:783 -> 2769.00
16:24:48:785 -> 2813.00
16:24:48:785 -> 2808.00
16:24:48:786 -> 2822.00
16:24:48:787 -> 2807.00
16:24:48:788 -> 2771.00
16:24:48:789 -> 2752.00
16:24:48:790 -> 2840.00
16:24:48:792 -> 2818.00
16:24:48:793 -> 2829.00
16:24:48:794 -> 2841.00
16:24:48:795 -> 2839.00
16:24:48:796 -> 2828.00
16:24:48:798 -> 2851.00
16:24:48:799 -> 2852.00
16:24:48:800 -> 2886.00
16:24:48:801 -> 2885.00
16:24:48:802 -> 2861.00
16:24:48:803 -> 2859.00
16:24:48:805 -> 2865.00
16:24:48:806 -> 2818.00
16:24:48:807 -> 2831.00
16:24:48:808 -> 2789.00
16:24:48:809 -> 2802.00
16:24:48:811 -> 2808.00
16:24:48:813 -> 2773.00
16:24:48:816 -> 2808.00
16:24:48:816 -> 2816.00
16:24:48:817 -> 2800.00
16:24:48:817 -> 2817.00
16:24:48:818 -> 2808.00
16:24:48:819 -> 2845.00
16:24:48:820 -> 2871.00
16:24:48:821 -> 2870.00
16:24:48:823 -> 2846.00
16:24:48:824 -> 2840.00
16:24:48:825 -> 2860.00
16:24:48:826 -> 2830.00
16:24:48:827 -> 2809.00
16:24:48:829 -> 2801.00
16:24:48:830 -> 2801.00
16:24:48:831 -> 2825.00
16:24:48:832 -> 2818.00
16:24:48:833 -> 2816.00
16:24:48:834 -> 2838.00
16:24:48:836 -> 2829.00
16:24:48:837 -> 2794.00
16:24:48:838 -> 2808.00
16:24:48:839 -> 2885.00
16:24:48:840 -> 2848.00
16:24:48:842 -> 2850.00
16:24:48:843 -> 2844.00
16:24:48:844 -> 2845.00
16:24:48:845 -> 2821.00
16:24:48:846 -> 2812.00
16:24:48:848 -> 2775.00
16:24:48:849 -> 2805.00
16:24:48:850 -> 2767.00
16:24:48:851 -> 2786.00
16:24:48:852 -> 2801.00
16:24:48:853 -> 2817.00
16:24:48:855 -> 2818.00
16:24:48:856 -> 2826.00
16:24:48:857 -> 2813.00
16:24:48:858 -> 2833.00
16:24:48:859 -> 2840.00
16:24:48:861 -> 2864.00
16:24:48:862 -> 2857.00
16:24:48:863 -> 2851.00
16:24:48:864 -> 2857.00
16:24:48:865 -> 2840.00
16:24:48:867 -> 2818.00
16:24:48:868 -> 2790.00
16:24:48:869 -> 2796.00
16:24:48:870 -> 2788.00
16:24:48:871 -> 2773.00
16:24:48:873 -> 2802.00
16:24:48:875 -> 2775.00
16:24:48:875 -> 2813.00
16:24:48:877 -> 2785.00
16:24:48:897 -> 2794.00
16:24:48:897 -> 2766.00
16:24:48:897 -> 2794.00
16:24:48:897 -> 2816.00
16:24:48:897 -> 2844.00
16:24:48:897 -> 2837.00
16:24:48:897 -> 2847.00
16:24:48:897 -> 2819.00
16:24:48:897 -> 2839.00
16:24:48:900 -> 2806.00
16:24:48:900 -> 2790.00
16:24:48:900 -> 2805.00
16:24:48:900 -> 2816.00
16:24:48:900 -> 2829.00
16:24:48:900 -> 2833.00
16:24:48:900 -> 2808.00
16:24:48:900 -> 2786.00
16:24:48:900 -> 2818.00
16:24:48:900 -> 2795.00
16:24:48:900 -> 2800.00
16:24:48:911 -> 2875.00
16:24:48:911 -> 2914.00
16:24:48:911 -> 2886.00
16:24:48:911 -> 2867.00
16:24:48:911 -> 2853.00
16:24:48:911 -> 2836.00
16:24:48:911 -> 2824.00
16:24:48:911 -> 2844.00
16:24:48:911 -> 2827.00
16:24:48:916 -> 2784.00
16:24:48:916 -> 2800.00
16:24:48:916 -> 2828.00
16:24:48:916 -> 2832.00
16:24:48:917 -> 2809.00
16:24:48:918 -> 2826.00
16:24:48:919 -> 2858.00
16:24:48:920 -> 2888.00
16:24:48:921 -> 2866.00
16:24:48:923 -> 2864.00
16:24:48:924 -> 2856.00
16:24:48:925 -> 2842.00
16:24:48:927 -> 2819.00
16:24:48:928 -> 2827.00
16:24:48:929 -> 2817.00
16:24:48:930 -> 2801.00
16:24:48:931 -> 2807.00
16:24:48:932 -> 2814.00
16:24:48:933 -> 2815.00
16:24:48:934 -> 2743.00
16:24:48:936 -> 2850.00
16:24:48:937 -> 2833.00
16:24:48:938 -> 2789.00
16:24:48:939 -> 2854.00
16:24:48:945 -> 2852.00
16:24:48:945 -> 2843.00
16:24:48:945 -> 2857.00
16:24:48:945 -> 2844.00
16:24:48:946 -> 2832.00
16:24:48:947 -> 2842.00
16:24:48:979 -> 2805.00
16:24:48:979 -> 2781.00
16:24:48:979 -> 2802.00
16:24:48:979 -> 2823.00
16:24:48:979 -> 2797.00
16:24:48:979 -> 2823.00
16:24:48:979 -> 2817.00
16:24:48:979 -> 2837.00
16:24:49:006 -> 2790.00
16:24:49:006 -> 2809.00
16:24:49:006 -> 2786.00
16:24:49:006 -> 2818.00
16:24:49:006 -> 2845.00
16:24:49:006 -> 2852.00
16:24:49:006 -> 2840.00
16:24:49:006 -> 2828.00
16:24:49:006 -> 2840.00
16:24:49:006 -> 2825.00
16:24:49:006 -> 2813.00
16:24:49:006 -> 2808.00
16:24:49:006 -> 2793.00
16:24:49:006 -> 2813.00
16:24:49:006 -> 2819.00
16:24:49:006 -> 2821.00
16:24:49:006 -> 2825.00
16:24:49:006 -> 2843.00
16:24:49:006 -> 2831.00
16:24:49:006 -> 2833.00
16:24:49:006 -> 2802.00
16:24:49:006 -> 2822.00
16:24:49:006 -> 2866.00
16:24:49:006 -> 2845.00
16:24:49:006 -> 2832.00
16:24:49:006 -> 2827.00
16:24:49:006 -> 2818.00
16:24:49:018 -> 2764.00
16:24:49:018 -> 2755.00
16:24:49:018 -> 2747.00
16:24:49:018 -> 2776.00
16:24:49:018 -> 2799.00
16:24:49:018 -> 2830.00
16:24:49:018 -> 2859.00
16:24:49:018 -> 2832.00
16:24:49:018 -> 2851.00
16:24:49:018 -> 2839.00
16:24:49:018 -> 2877.00
16:24:49:018 -> 2844.00
16:24:49:018 -> 2835.00
16:24:49:018 -> 2828.00
16:24:49:018 -> 2811.00
16:24:49:018 -> 2790.00
16:24:49:018 -> 2752.00
16:24:49:018 -> 2745.00
16:24:49:018 -> 2791.00
16:24:49:018 -> 2838.00
16:24:49:018 -> 2849.00
16:24:49:018 -> 2826.00
16:24:49:018 -> 2848.00
16:24:49:018 -> 2812.00
16:24:49:051 -> 2837.00
16:24:49:051 -> 2860.00
16:24:49:051 -> 2907.00
16:24:49:051 -> 2891.00
16:24:49:051 -> 2892.00
16:24:49:051 -> 2843.00
16:24:49:051 -> 2859.00
16:24:49:051 -> 2825.00
16:24:49:051 -> 2808.00
16:24:49:051 -> 2808.00
16:24:49:051 -> 2801.00
16:24:49:051 -> 2797.00
16:24:49:051 -> 2848.00
16:24:49:051 -> 2828.00
16:24:49:051 -> 2807.00
16:24:49:051 -> 2845.00
16:24:49:051 -> 2843.00
16:24:49:051 -> 2834.00
16:24:49:051 -> 2869.00
16:24:49:051 -> 2871.00
16:24:49:051 -> 2856.00
16:24:49:051 -> 2861.00
16:24:49:051 -> 2861.00
16:24:49:051 -> 2860.00
16:24:49:051 -> 2832.00
16:24:49:051 -> 2811.00
16:24:49:051 -> 2806.00
16:24:49:051 -> 2763.00
16:24:49:051 -> 2772.00
16:24:49:064 -> 2801.00
16:24:49:064 -> 2816.00
16:24:49:064 -> 2809.00
16:24:49:064 -> 2852.00
16:24:49:064 -> 2826.00
16:24:49:064 -> 2842.00
16:24:49:064 -> 2808.00
16:24:49:064 -> 2835.00
16:24:49:064 -> 2878.00
16:24:49:064 -> 2863.00
16:24:49:073 -> 2855.00
16:24:49:073 -> 2849.00
16:24:49:073 -> 2813.00
16:24:49:073 -> 2803.00
16:24:49:073 -> 2802.00
16:24:49:073 -> 2825.00
16:24:49:073 -> 2794.00
16:24:49:073 -> 2818.00
16:24:49:075 -> 2824.00
16:24:49:075 -> 2838.00
16:24:49:076 -> 2828.00
16:24:49:077 -> 2868.00
16:24:49:078 -> 2845.00
16:24:49:080 -> 2869.00
16:24:49:081 -> 2828.00
16:24:49:082 -> 2838.00
16:24:49:083 -> 2847.00
16:24:49:084 -> 2860.00
16:24:49:090 -> 2862.00
16:24:49:090 -> 2807.00
16:24:49:090 -> 2801.00
16:24:49:090 -> 2756.00
16:24:49:091 -> 2751.00
16:24:49:092 -> 2771.00
16:24:49:093 -> 2818.00
16:24:49:094 -> 2837.00
16:24:49:095 -> 2837.00
16:24:49:096 -> 2801.00
16:24:49:097 -> 2815.00
16:24:49:100 -> 2801.00
16:24:49:100 -> 2843.00
16:24:49:102 -> 2867.00
16:24:49:142 -> 2839.00
16:24:49:142 -> 2879.00
16:24:49:142 -> 2882.00
16:24:49:142 -> 2855.00
16:24:49:142 -> 2836.00
16:24:49:142 -> 2832.00
16:24:49:142 -> 2849.00
16:24:49:142 -> 2848.00
16:24:49:142 -> 2816.00
16:24:49:172 -> 2841.00
16:24:49:172 -> 2836.00
16:24:49:172 -> 2846.00
16:24:49:172 -> 2805.00
16:24:49:172 -> 2842.00
16:24:49:172 -> 2827.00
16:24:49:172 -> 2884.00
16:24:49:172 -> 2874.00
16:24:49:172 -> 2852.00
16:24:49:172 -> 2859.00
16:24:49:172 -> 2841.00
16:24:49:172 -> 2863.00
16:24:49:172 -> 2850.00
16:24:49:172 -> 2814.00
16:24:49:172 -> 2788.00
16:24:49:172 -> 2813.00
16:24:49:172 -> 2831.00
16:24:49:172 -> 2828.00
16:24:49:172 -> 2838.00
16:24:49:172 -> 2840.00
16:24:49:172 -> 2822.00
16:24:49:172 -> 2859.00
16:24:49:172 -> 2844.00
16:24:49:172 -> 2898.00
16:24:49:172 -> 2861.00
16:24:49:172 -> 2886.00
16:24:49:172 -> 2881.00
16:24:49:172 -> 2864.00
16:24:49:172 -> 2856.00
16:24:49:172 -> 2832.00
16:24:49:172 -> 2789.00
16:24:49:172 -> 2826.00
16:24:49:172 -> 2834.00
16:24:49:172 -> 2799.00
16:24:49:172 -> 2842.00
16:24:49:172 -> 2828.00
16:24:49:172 -> 2842.00
16:24:49:172 -> 2851.00
16:24:49:172 -> 2872.00
16:24:49:172 -> 2851.00
16:24:49:172 -> 2865.00
16:24:49:172 -> 2827.00
16:24:49:172 -> 2872.00
16:24:49:172 -> 2877.00
16:24:49:172 -> 2852.00
16:24:49:172 -> 2844.00
16:24:49:172 -> 2817.00
16:24:49:172 -> 2756.00
16:24:49:172 -> 2755.00
16:24:49:172 -> 2751.00
16:24:49:172 -> 2739.00
16:24:49:175 -> 2762.00
16:24:49:175 -> 2830.00
16:24:49:182 -> 2858.00
16:24:49:182 -> 2852.00
16:24:49:182 -> 2857.00
16:24:49:182 -> 2848.00
16:24:49:182 -> 2852.00
16:24:49:182 -> 2848.00
16:24:49:187 -> 2830.00
16:24:49:187 -> 2844.00
16:24:49:187 -> 2823.00
16:24:49:187 -> 2836.00
16:24:49:188 -> 2871.00
16:24:49:189 -> 2814.00
16:24:49:190 -> 2761.00
16:24:49:192 -> 2793.00
16:24:49:193 -> 2848.00
16:24:49:195 -> 2845.00
16:24:49:195 -> 2861.00
16:24:49:198 -> 2841.00
16:24:49:198 -> 2844.00
16:24:49:210 -> 2836.00
16:24:49:210 -> 2840.00
16:24:49:210 -> 2902.00
16:24:49:210 -> 2864.00
16:24:49:210 -> 2870.00
16:24:49:210 -> 2871.00
16:24:49:210 -> 2891.00
16:24:49:210 -> 2824.00
16:24:49:210 -> 2818.00
16:24:49:210 -> 2784.00
16:24:49:211 -> 2811.00
16:24:49:212 -> 2799.00
16:24:49:213 -> 2832.00
16:24:49:214 -> 2776.00
16:24:49:215 -> 2826.00
16:24:49:216 -> 2787.00
16:24:49:218 -> 2850.00
16:24:49:219 -> 2842.00
16:24:49:220 -> 2885.00
16:24:49:221 -> 2876.00
16:24:49:222 -> 2872.00
16:24:49:224 -> 2870.00
16:24:49:225 -> 2856.00
16:24:49:226 -> 2867.00
16:24:49:228 -> 2848.00
16:24:49:228 -> 2827.00
16:24:49:230 -> 2780.00
16:24:49:231 -> 2862.00
16:24:49:233 -> 2824.00
16:24:49:235 -> 2831.00
16:24:49:235 -> 2832.00
16:24:49:235 -> 2840.00
16:24:49:237 -> 2841.00
16:24:49:238 -> 2798.00
16:24:49:239 -> 2841.00
16:24:49:240 -> 2901.00
16:24:49:242 -> 2877.00
16:24:49:269 -> 2876.00
16:24:49:269 -> 2873.00
16:24:49:269 -> 2865.00
16:24:49:269 -> 2841.00
16:24:49:269 -> 2840.00
16:24:49:269 -> 2802.00
16:24:49:269 -> 2772.00
16:24:49:269 -> 2768.00
16:24:49:269 -> 2797.00
16:24:49:269 -> 2811.00
16:24:49:269 -> 2846.00
16:24:49:269 -> 2844.00
16:24:49:269 -> 2846.00
16:24:49:269 -> 2857.00
16:24:49:269 -> 2873.00
16:24:49:269 -> 2828.00
16:24:49:269 -> 2888.00
16:24:49:269 -> 2869.00
16:24:49:269 -> 2866.00
16:24:49:269 -> 2852.00
16:24:49:269 -> 2828.00
16:24:49:269 -> 2815.00
16:24:49:278 -> 2800.00
16:24:49:278 -> 2828.00
16:24:49:278 -> 2867.00
16:24:49:278 -> 2824.00
16:24:49:278 -> 2827.00
16:24:49:278 -> 2827.00
16:24:49:278 -> 2812.00
16:24:49:278 -> 2834.00
16:24:49:310 -> 2818.00
16:24:49:310 -> 2846.00
16:24:49:310 -> 2860.00
16:24:49:310 -> 2855.00
16:24:49:310 -> 2834.00
16:24:49:310 -> 2819.00
16:24:49:310 -> 2829.00
16:24:49:310 -> 2848.00
16:24:49:310 -> 2884.00
16:24:49:310 -> 2854.00
16:24:49:310 -> 2839.00
16:24:49:310 -> 2812.00
16:24:49:310 -> 2834.00
16:24:49:310 -> 2823.00
16:24:49:310 -> 2832.00
16:24:49:310 -> 2840.00
16:24:49:310 -> 2848.00
16:24:49:310 -> 2819.00
16:24:49:310 -> 2829.00
16:24:49:310 -> 2872.00
16:24:49:310 -> 2867.00
16:24:49:310 -> 2868.00
16:24:49:310 -> 2863.00
16:24:49:310 -> 2854.00
16:24:49:310 -> 2859.00
16:24:49:310 -> 2788.00
16:24:49:310 -> 2798.00
16:24:49:340 -> 2782.00
16:24:49:340 -> 2812.00
16:24:49:340 -> 2825.00
16:24:49:340 -> 2869.00
16:24:49:340 -> 2860.00
16:24:49:340 -> 2838.00
16:24:49:340 -> 2837.00
16:24:49:340 -> 2852.00
16:24:49:340 -> 2890.00
16:24:49:340 -> 2890.00
16:24:49:340 -> 2900.00
16:24:49:340 -> 2877.00
16:24:49:340 -> 2875.00
16:24:49:340 -> 2875.00
16:24:49:340 -> 2865.00
16:24:49:340 -> 2836.00
16:24:49:340 -> 2787.00
16:24:49:340 -> 2764.00
16:24:49:340 -> 2819.00
16:24:49:340 -> 2841.00
16:24:49:340 -> 2834.00
16:24:49:340 -> 2833.00
16:24:49:340 -> 2837.00
16:24:49:340 -> 2819.00
16:24:49:340 -> 2867.00
16:24:49:340 -> 2849.00
16:24:49:346 -> 2883.00
16:24:49:346 -> 2872.00
16:24:49:346 -> 2876.00
16:24:49:346 -> 2872.00
16:24:49:346 -> 2871.00
16:24:49:370 -> 2882.00
16:24:49:370 -> 2812.00
16:24:49:370 -> 2823.00
16:24:49:370 -> 2818.00
16:24:49:370 -> 2839.00
16:24:49:370 -> 2829.00
16:24:49:370 -> 2830.00
16:24:49:370 -> 2848.00
16:24:49:370 -> 2831.00
16:24:49:370 -> 2821.00
16:24:49:370 -> 2859.00
16:24:49:370 -> 2883.00
16:24:49:370 -> 2860.00
16:24:49:370 -> 2876.00
16:24:49:370 -> 2859.00
16:24:49:370 -> 2868.00
16:24:49:370 -> 2833.00
16:24:49:370 -> 2841.00
16:24:49:370 -> 2806.00
16:24:49:380 -> 2819.00
16:24:49:380 -> 2842.00
16:24:49:380 -> 2812.00
16:24:49:380 -> 2812.00
16:24:49:380 -> 2802.00
16:24:49:380 -> 2793.00
16:24:49:380 -> 2806.00
16:24:49:380 -> 2859.00
16:24:49:380 -> 2866.00
16:24:49:387 -> 2889.00
16:24:49:387 -> 2854.00
16:24:49:387 -> 2881.00
16:24:49:387 -> 2872.00
16:24:49:387 -> 2898.00
16:24:49:387 -> 2859.00
16:24:49:405 -> 2845.00
16:24:49:405 -> 2845.00
16:24:49:405 -> 2849.00
16:24:49:405 -> 2838.00
16:24:49:405 -> 2846.00
16:24:49:405 -> 2849.00
16:24:49:405 -> 2837.00
16:24:49:405 -> 2800.00
16:24:49:405 -> 2821.00
16:24:49:416 -> 2856.00
16:24:49:416 -> 2850.00
16:24:49:416 -> 2842.00
16:24:49:416 -> 2843.00
16:24:49:416 -> 2873.00
16:24:49:416 -> 2890.00
16:24:49:416 -> 2872.00
16:24:49:416 -> 2864.00
16:24:49:416 -> 2845.00
16:24:49:416 -> 2856.00
16:24:49:416 -> 2851.00
16:24:49:416 -> 2840.00
16:24:49:416 -> 2843.00
16:24:49:416 -> 2848.00
16:24:49:416 -> 2862.00
16:24:49:426 -> 2834.00
16:24:49:426 -> 2866.00
16:24:49:426 -> 2871.00
16:24:49:426 -> 2903.00
16:24:49:426 -> 2891.00
16:24:49:426 -> 2866.00
16:24:49:426 -> 2884.00
16:24:49:426 -> 2884.00
16:24:49:435 -> 2845.00
16:24:49:435 -> 2839.00
16:24:49:435 -> 2837.00
16:24:49:435 -> 2850.00
16:24:49:435 -> 2831.00
16:24:49:435 -> 2842.00
16:24:49:435 -> 2852.00
16:24:49:435 -> 2854.00
16:24:49:452 -> 2854.00
16:24:49:452 -> 2853.00
16:24:49:452 -> 2849.00
16:24:49:452 -> 2854.00
16:24:49:452 -> 2840.00
16:24:49:452 -> 2883.00
16:24:49:452 -> 2872.00
16:24:49:452 -> 2869.00
16:24:49:452 -> 2865.00
16:24:49:452 -> 2858.00
16:24:49:452 -> 2835.00
16:24:49:452 -> 2807.00
16:24:49:452 -> 2808.00
16:24:49:452 -> 2826.00
16:24:49:452 -> 2841.00
16:24:49:454 -> 2841.00
16:24:49:484 -> 2841.00
16:24:49:484 -> 2857.00
16:24:49:484 -> 2824.00
16:24:49:484 -> 2799.00
16:24:49:484 -> 2855.00
16:24:49:484 -> 2902.00
16:24:49:484 -> 2868.00
16:24:49:484 -> 2873.00
16:24:49:484 -> 2862.00
16:24:49:484 -> 2874.00
16:24:49:484 -> 2861.00
16:24:49:484 -> 2832.00
16:24:49:484 -> 2802.00
16:24:49:484 -> 2768.00
16:24:49:484 -> 2771.00
16:24:49:484 -> 2822.00
16:24:49:484 -> 2812.00
16:24:49:484 -> 2840.00
16:24:49:484 -> 2834.00
16:24:49:484 -> 2863.00
16:24:49:484 -> 2838.00
16:24:49:484 -> 2850.00
16:24:49:484 -> 2878.00
16:24:49:484 -> 2903.00
16:24:49:484 -> 2885.00
16:24:49:488 -> 2866.00
16:24:49:488 -> 2845.00
16:24:49:488 -> 2839.00
16:24:49:488 -> 2828.00
16:24:49:492 -> 2783.00
16:24:49:492 -> 2818.00
16:24:49:492 -> 2812.00
16:24:49:498 -> 2821.00
16:24:49:498 -> 2841.00
16:24:49:498 -> 2847.00
16:24:49:498 -> 2828.00
16:24:49:498 -> 2885.00
16:24:49:508 -> 2865.00
16:24:49:508 -> 2899.00
16:24:49:508 -> 2946.00
16:24:49:508 -> 2880.00
16:24:49:508 -> 2896.00
16:24:49:508 -> 2877.00
16:24:49:508 -> 2844.00
16:24:49:508 -> 2843.00
16:24:49:510 -> 2842.00
16:24:49:510 -> 2822.00
16:24:49:520 -> 2846.00
16:24:49:520 -> 2825.00
16:24:49:520 -> 2854.00
16:24:49:520 -> 2852.00
16:24:49:520 -> 2871.00
16:24:49:520 -> 2828.00
16:24:49:520 -> 2876.00
16:24:49:520 -> 2878.00
16:24:49:524 -> 2881.00
16:24:49:524 -> 2924.00
16:24:49:524 -> 2901.00
16:24:49:524 -> 2898.00
16:24:49:527 -> 2911.00
16:24:49:527 -> 2843.00
16:24:49:527 -> 2849.00
16:24:49:535 -> 2894.00
16:24:49:535 -> 2835.00
16:24:49:535 -> 2846.00
16:24:49:535 -> 2803.00
16:24:49:535 -> 2857.00
16:24:49:535 -> 2856.00
16:24:49:541 -> 2857.00
16:24:49:541 -> 2839.00
16:24:49:541 -> 2899.00
16:24:49:541 -> 2901.00
16:24:49:541 -> 2898.00
16:24:49:549 -> 2877.00
16:24:49:549 -> 2879.00
16:24:49:549 -> 2880.00
16:24:49:549 -> 2868.00
16:24:49:549 -> 2847.00
16:24:49:549 -> 2821.00
16:24:49:549 -> 2820.00
16:24:49:552 -> 2760.00
16:24:49:552 -> 2827.00
16:24:49:565 -> 2794.00
16:24:49:565 -> 2813.00
16:24:49:565 -> 2814.00
16:24:49:565 -> 2809.00
16:24:49:565 -> 2818.00
16:24:49:565 -> 2853.00
16:24:49:565 -> 2834.00
16:24:49:565 -> 2873.00
16:24:49:565 -> 2888.00
16:24:49:565 -> 2895.00
16:24:49:565 -> 2898.00
16:24:49:569 -> 2880.00
16:24:49:569 -> 2887.00
16:24:49:569 -> 2844.00
16:24:49:569 -> 2843.00
16:24:49:570 -> 2856.00
16:24:49:571 -> 2831.00
16:24:49:579 -> 2822.00
16:24:49:579 -> 2837.00
16:24:49:579 -> 2843.00
16:24:49:579 -> 2841.00
16:24:49:579 -> 2842.00
16:24:49:579 -> 2879.00
16:24:49:587 -> 2874.00
16:24:49:587 -> 2935.00
16:24:49:587 -> 2911.00
16:24:49:587 -> 2893.00
16:24:49:587 -> 2883.00
16:24:49:587 -> 2872.00
16:24:49:587 -> 2851.00
16:24:49:588 -> 2841.00
16:24:49:591 -> 2834.00
16:24:49:591 -> 2856.00
16:24:49:593 -> 2832.00
16:24:49:593 -> 2849.00
16:24:49:595 -> 2848.00
16:24:49:595 -> 2863.00
16:24:49:596 -> 2872.00
16:24:49:600 -> 2854.00
16:24:49:600 -> 2876.00
16:24:49:600 -> 2887.00
16:24:49:603 -> 2891.00
16:24:49:603 -> 2904.00
16:24:49:604 -> 2910.00
16:24:49:605 -> 2892.00
16:24:49:606 -> 2887.00
16:24:49:607 -> 2844.00
16:24:49:608 -> 2821.00
16:24:49:609 -> 2823.00
16:24:49:611 -> 2857.00
16:24:49:612 -> 2820.00
16:24:49:613 -> 2847.00
16:24:49:614 -> 2861.00
16:24:49:615 -> 2861.00
16:24:49:616 -> 2839.00
16:24:49:618 -> 2818.00
16:24:49:619 -> 2858.00
16:24:49:637 -> 2900.00
16:24:49:637 -> 2917.00
16:24:49:637 -> 2888.00
16:24:49:637 -> 2887.00
16:24:49:637 -> 2872.00
16:24:49:680 -> 2849.00
16:24:49:680 -> 2830.00
16:24:49:680 -> 2807.00
16:24:49:680 -> 2779.00
16:24:49:680 -> 2801.00
16:24:49:680 -> 2806.00
16:24:49:680 -> 2833.00
16:24:49:680 -> 2842.00
16:24:49:680 -> 2860.00
16:24:49:680 -> 2855.00
16:24:49:680 -> 2840.00
16:24:49:680 -> 2859.00
16:24:49:680 -> 2896.00
16:24:49:680 -> 2893.00
16:24:49:680 -> 2893.00
16:24:49:680 -> 2878.00
16:24:49:680 -> 2866.00
16:24:49:680 -> 2884.00
16:24:49:692 -> 2802.00
16:24:49:692 -> 2790.00
16:24:49:692 -> 2843.00
16:24:49:692 -> 2884.00
16:24:49:692 -> 2853.00
16:24:49:692 -> 2853.00
16:24:49:692 -> 2866.00
16:24:49:692 -> 2863.00
16:24:49:692 -> 2838.00
16:24:49:692 -> 2840.00
16:24:49:692 -> 2853.00
16:24:49:692 -> 2750.00
16:24:49:692 -> 2842.00
16:24:49:692 -> 2949.00
16:24:49:692 -> 2903.00
16:24:49:692 -> 2879.00
16:24:49:692 -> 2862.00
16:24:49:692 -> 2841.00
16:24:49:692 -> 2844.00
16:24:49:692 -> 2805.00
16:24:49:692 -> 2839.00
16:24:49:692 -> 2851.00
16:24:49:692 -> 2835.00
16:24:49:692 -> 2837.00
16:24:49:692 -> 2866.00
16:24:49:692 -> 2850.00
16:24:49:692 -> 2858.00
16:24:49:692 -> 2899.00
16:24:49:692 -> 2918.00
16:24:49:692 -> 2921.00
16:24:49:692 -> 2934.00
16:24:49:695 -> 2921.00
16:24:49:695 -> 2902.00
16:24:49:695 -> 2870.00
16:24:49:695 -> 2871.00
16:24:49:695 -> 2859.00
16:24:49:695 -> 2751.00
16:24:49:695 -> 2821.00
16:24:49:695 -> 2841.00
16:24:49:695 -> 2873.00
16:24:49:695 -> 2881.00
16:24:49:702 -> 2879.00
16:24:49:702 -> 2837.00
16:24:49:702 -> 2858.00
16:24:49:702 -> 2887.00
16:24:49:702 -> 2885.00
16:24:49:706 -> 2907.00
16:24:49:706 -> 2893.00
16:24:49:706 -> 2890.00
16:24:49:706 -> 2863.00
16:24:49:707 -> 2826.00
16:24:49:708 -> 2811.00
16:24:49:710 -> 2769.00
16:24:49:711 -> 2771.00
16:24:49:712 -> 2778.00
16:24:49:713 -> 2787.00
16:24:49:714 -> 2813.00
16:24:49:716 -> 2842.00
16:24:49:717 -> 2825.00
16:24:49:718 -> 2832.00
16:24:49:719 -> 2866.00
16:24:49:720 -> 2866.00
16:24:49:721 -> 2918.00
16:24:49:722 -> 2918.00
16:24:49:724 -> 2899.00
16:24:49:725 -> 2883.00
16:24:49:726 -> 2877.00
16:24:49:728 -> 2866.00
16:24:49:728 -> 2853.00
16:24:49:730 -> 2838.00
16:24:49:731 -> 2859.00
16:24:49:732 -> 2824.00
16:24:49:733 -> 2854.00
16:24:49:734 -> 2870.00
16:24:49:735 -> 2886.00
16:24:49:737 -> 2897.00
16:24:49:738 -> 2871.00
16:24:49:739 -> 2896.00
16:24:49:740 -> 2913.00
16:24:49:741 -> 2905.00
16:24:49:743 -> 2900.00
16:24:49:744 -> 2910.00
16:24:49:745 -> 2896.00
16:24:49:746 -> 2869.00
16:24:49:748 -> 2853.00
16:24:49:750 -> 2864.00
16:24:49:750 -> 2889.00
16:24:49:751 -> 2850.00
16:24:49:752 -> 2836.00
16:24:49:753 -> 2847.00
16:24:49:754 -> 2845.00
16:24:49:756 -> 2866.00
16:24:49:757 -> 2869.00
16:24:49:758 -> 2872.00
16:24:49:759 -> 2872.00
16:24:49:761 -> 2915.00
16:24:49:762 -> 2909.00
16:24:49:763 -> 2875.00
16:24:49:764 -> 2884.00
16:24:49:765 -> 2878.00
16:24:49:766 -> 2900.00
16:24:49:768 -> 2881.00
16:24:49:769 -> 2852.00
16:24:49:770 -> 2819.00
16:24:49:771 -> 2799.00
16:24:49:772 -> 2868.00
16:24:49:774 -> 2860.00
16:24:49:775 -> 2880.00
16:24:49:777 -> 2892.00
16:24:49:780 -> 2902.00
16:24:49:780 -> 2875.00
16:24:49:780 -> 2924.00
16:24:49:781 -> 2929.00
16:24:49:782 -> 2876.00
16:24:49:783 -> 2875.00
16:24:49:784 -> 2864.00
16:24:49:785 -> 2855.00
16:24:49:787 -> 2847.00
16:24:49:788 -> 2873.00
16:24:49:790 -> 2844.00
16:24:49:791 -> 2800.00
16:24:49:791 -> 2830.00
16:24:49:793 -> 2877.00
16:24:49:794 -> 2906.00
16:24:49:795 -> 2887.00
16:24:49:797 -> 2889.00
16:24:49:797 -> 2894.00
16:24:49:814 -> 2896.00
16:24:49:814 -> 2872.00
16:24:49:814 -> 2860.00
16:24:49:814 -> 2871.00
16:24:49:814 -> 2887.00
16:24:49:814 -> 2892.00
16:24:49:814 -> 2881.00
16:24:49:814 -> 2869.00
16:24:49:814 -> 2855.00
16:24:49:814 -> 2776.00
16:24:49:814 -> 2794.00
16:24:49:814 -> 2871.00
16:24:49:814 -> 2868.00
16:24:49:819 -> 2877.00
16:24:49:819 -> 2872.00
16:24:49:819 -> 2925.00
16:24:49:819 -> 2925.00
16:24:49:820 -> 2906.00
16:24:49:820 -> 2932.00
16:24:49:821 -> 2895.00
16:24:49:822 -> 2891.00
16:24:49:824 -> 2854.00
16:24:49:825 -> 2803.00
16:24:49:826 -> 2860.00
16:24:49:827 -> 2883.00
16:24:49:829 -> 2865.00
16:24:49:831 -> 2838.00
16:24:49:831 -> 2822.00
16:24:49:832 -> 2744.00
16:24:49:833 -> 2794.00
16:24:49:834 -> 2840.00
16:24:49:835 -> 2871.00
16:24:49:837 -> 2786.00
16:24:49:838 -> 2844.00
16:24:49:839 -> 2905.00
16:24:49:840 -> 2939.00
16:24:49:842 -> 2914.00
16:24:49:844 -> 2901.00
16:24:49:847 -> 2925.00
16:24:49:847 -> 2888.00
16:24:49:847 -> 2917.00
16:24:49:883 -> 2892.00
16:24:49:883 -> 2868.00
16:24:49:883 -> 2806.00
16:24:49:883 -> 2811.00
16:24:49:883 -> 2841.00
16:24:49:883 -> 2857.00
16:24:49:883 -> 2862.00
16:24:49:883 -> 2914.00
16:24:49:883 -> 2884.00
16:24:49:883 -> 2871.00
16:24:49:883 -> 2844.00
16:24:49:883 -> 2832.00
16:24:49:883 -> 2872.00
16:24:49:883 -> 2853.00
16:24:49:883 -> 2901.00
16:24:49:883 -> 2854.00
16:24:49:883 -> 2917.00
16:24:49:883 -> 2949.00
16:24:49:896 -> 2868.00
16:24:49:896 -> 2862.00
16:24:49:896 -> 2820.00
16:24:49:896 -> 2843.00
16:24:49:896 -> 2857.00
16:24:49:896 -> 2858.00
16:24:49:896 -> 2853.00
16:24:49:896 -> 2841.00
16:24:49:896 -> 2867.00
16:24:49:896 -> 2857.00
16:24:49:896 -> 2901.00
16:24:49:896 -> 2968.00
16:24:49:896 -> 2972.00
16:24:49:896 -> 2940.00
16:24:49:896 -> 2875.00
16:24:49:896 -> 2882.00
16:24:49:896 -> 2850.00
16:24:49:896 -> 2856.00
16:24:49:916 -> 2817.00
16:24:49:916 -> 2870.00
16:24:49:916 -> 2860.00
16:24:49:916 -> 2843.00
16:24:49:916 -> 2842.00
16:24:49:916 -> 2926.00
16:24:49:916 -> 2891.00
16:24:49:916 -> 2854.00
16:24:49:916 -> 2877.00
16:24:49:916 -> 2811.00
16:24:49:916 -> 2838.00
16:24:49:916 -> 2937.00
16:24:49:916 -> 2957.00
16:24:49:916 -> 2910.00
16:24:49:916 -> 2873.00
16:24:49:916 -> 2874.00
16:24:49:916 -> 2866.00
16:24:49:916 -> 2835.00
16:24:49:916 -> 2846.00
16:24:49:916 -> 2893.00
16:24:49:916 -> 2889.00
16:24:49:942 -> 2859.00
16:24:49:942 -> 2797.00
16:24:49:942 -> 2806.00
16:24:49:942 -> 2849.00
16:24:49:942 -> 2942.00
16:24:49:942 -> 2917.00
16:24:49:942 -> 2882.00
16:24:49:942 -> 2924.00
16:24:49:942 -> 2836.00
16:24:49:942 -> 2810.00
16:24:49:942 -> 2847.00
16:24:49:942 -> 2879.00
16:24:49:942 -> 2817.00
16:24:49:942 -> 2854.00
16:24:49:942 -> 2839.00
16:24:49:942 -> 2842.00
16:24:49:942 -> 2838.00
16:24:49:942 -> 2866.00
16:24:49:942 -> 2872.00
16:24:49:942 -> 2853.00
16:24:49:942 -> 2878.00
16:24:49:942 -> 2910.00
16:24:49:942 -> 3002.00
16:24:49:949 -> 2888.00
16:24:49:949 -> 2868.00
16:24:49:949 -> 2865.00
16:24:49:949 -> 2840.00
16:24:49:949 -> 2885.00
16:24:49:949 -> 2842.00
16:24:49:959 -> 2814.00
16:24:49:959 -> 2870.00
16:24:49:959 -> 2906.00
16:24:49:959 -> 2919.00
16:24:49:959 -> 2952.00
16:24:49:959 -> 2961.00
16:24:49:959 -> 2869.00
16:24:49:959 -> 2765.00
16:24:49:960 -> 2768.00
16:24:49:961 -> 2764.00
16:24:49:963 -> 2804.00
16:24:49:963 -> 2844.00
16:24:49:964 -> 2820.00
16:24:49:965 -> 3038.00
16:24:49:966 -> 2928.00
16:24:49:968 -> 2846.00
16:24:49:969 -> 2848.00
16:24:49:970 -> 2824.00
16:24:49:971 -> 2876.00
16:24:49:972 -> 2878.00
16:24:49:973 -> 2882.00
16:24:49:975 -> 2871.00
16:24:49:976 -> 2875.00
16:24:49:977 -> 2876.00
16:24:49:978 -> 2867.00
16:24:49:979 -> 2898.00
16:24:49:981 -> 2903.00
16:24:49:982 -> 2918.00
16:24:49:984 -> 2917.00
16:24:49:984 -> 2890.00
16:24:49:985 -> 2866.00
16:24:49:987 -> 2818.00
16:24:49:988 -> 2838.00
16:24:49:989 -> 2895.00
16:24:49:990 -> 2813.00
16:24:49:991 -> 2770.00
16:24:49:992 -> 2771.00
16:24:49:994 -> 2847.00
16:24:49:995 -> 2812.00
16:24:49:996 -> 2840.00
16:24:49:997 -> 2764.00
16:24:49:999 -> 2852.00
16:24:50:000 -> 2978.00
16:24:50:001 -> 2899.00
16:24:50:002 -> 2865.00
16:24:50:003 -> 2888.00
16:24:50:004 -> 2954.00
16:24:50:006 -> 2942.00
16:24:50:007 -> 2851.00
16:24:50:008 -> 2795.00
16:24:50:009 -> 2813.00
16:24:50:010 -> 2807.00
16:24:50:012 -> 2801.00
16:24:50:013 -> 2856.00
16:24:50:014 -> 2857.00
16:24:50:015 -> 2863.00
16:24:50:016 -> 2839.00
16:24:50:018 -> 2841.00
16:24:50:019 -> 2872.00
16:24:50:020 -> 2859.00
16:24:50:021 -> 2896.00
16:24:50:022 -> 2831.00
16:24:50:024 -> 2856.00
16:24:50:025 -> 2913.00
16:24:50:026 -> 2903.00
16:24:50:027 -> 2877.00
16:24:50:028 -> 2863.00
16:24:50:029 -> 2890.00
16:24:50:031 -> 2871.00
16:24:50:033 -> 2835.00
16:24:50:033 -> 2886.00
16:24:50:034 -> 2881.00
16:24:50:035 -> 2808.00
16:24:50:037 -> 2772.00
16:24:50:038 -> 2879.00
16:24:50:039 -> 2867.00
16:24:50:040 -> 2904.00
16:24:50:041 -> 2883.00
16:24:50:042 -> 2890.00
16:24:50:044 -> 2858.00
16:24:50:048 -> 2801.00
16:24:50:048 -> 2887.00
16:24:50:048 -> 2895.00
16:24:50:050 -> 2763.00
16:24:50:050 -> 2703.00
16:24:50:054 -> 2684.00
16:24:50:054 -> 2730.00
16:24:50:089 -> 2856.00
16:24:50:089 -> 2857.00
16:24:50:089 -> 2846.00
16:24:50:089 -> 2808.00
16:24:50:089 -> 2881.00
16:24:50:089 -> 2887.00
16:24:50:089 -> 2849.00
16:24:50:089 -> 2821.00
16:24:50:089 -> 2902.00
16:24:50:089 -> 2864.00
16:24:50:089 -> 2857.00
16:24:50:089 -> 2802.00
16:24:50:089 -> 2779.00
16:24:50:089 -> 2758.00
16:24:50:089 -> 2734.00
16:24:50:089 -> 2679.00
16:24:50:089 -> 2758.00
16:24:50:089 -> 2932.00
16:24:50:089 -> 2932.00
16:24:50:089 -> 2925.00
16:24:50:089 -> 2855.00
16:24:50:089 -> 2825.00
16:24:50:089 -> 2916.00
16:24:50:089 -> 3012.00
16:24:50:089 -> 2930.00
16:24:50:089 -> 2846.00
16:24:50:089 -> 2860.00
16:24:50:089 -> 2892.00
16:24:50:089 -> 2881.00
16:24:50:089 -> 2774.00
16:24:50:089 -> 2731.00
16:24:50:124 -> 2784.00
16:24:50:124 -> 2853.00
16:24:50:124 -> 2964.00
16:24:50:124 -> 2923.00
16:24:50:124 -> 2840.00
16:24:50:124 -> 2829.00
16:24:50:124 -> 2830.00
16:24:50:124 -> 2822.00
16:24:50:124 -> 2862.00
16:24:50:124 -> 2891.00
16:24:50:124 -> 2877.00
16:24:50:124 -> 2883.00
16:24:50:124 -> 2863.00
16:24:50:124 -> 2821.00
16:24:50:124 -> 2831.00
16:24:50:124 -> 2872.00
16:24:50:124 -> 2849.00
16:24:50:124 -> 2757.00
16:24:50:124 -> 2806.00
16:24:50:124 -> 2793.00
16:24:50:124 -> 2897.00
16:24:50:124 -> 2923.00
16:24:50:124 -> 2786.00
16:24:50:124 -> 2673.00
16:24:50:124 -> 2763.00
16:24:50:124 -> 2822.00
16:24:50:124 -> 2793.00
16:24:50:124 -> 2769.00
16:24:50:124 -> 2829.00
16:24:50:143 -> 2862.00
16:24:50:143 -> 2822.00
16:24:50:143 -> 2839.00
16:24:50:143 -> 2814.00
16:24:50:143 -> 2780.00
16:24:50:143 -> 2728.00
16:24:50:143 -> 2694.00
16:24:50:143 -> 2680.00
16:24:50:143 -> 2658.00
16:24:50:143 -> 2705.00
16:24:50:143 -> 2740.00
16:24:50:143 -> 2824.00
16:24:50:143 -> 2786.00
16:24:50:143 -> 2835.00
16:24:50:143 -> 2860.00
16:24:50:143 -> 2811.00
16:24:50:179 -> 2897.00
16:24:50:179 -> 3056.00
16:24:50:179 -> 2956.00
16:24:50:179 -> 2879.00
16:24:50:179 -> 2862.00
16:24:50:179 -> 2873.00
16:24:50:179 -> 2846.00
16:24:50:179 -> 2866.00
16:24:50:179 -> 2902.00
16:24:50:179 -> 2865.00
16:24:50:179 -> 2856.00
16:24:50:179 -> 2845.00
16:24:50:179 -> 2904.00
16:24:50:179 -> 2938.00
16:24:50:179 -> 2891.00
16:24:50:179 -> 2805.00
16:24:50:179 -> 2893.00
16:24:50:179 -> 2900.00
16:24:50:179 -> 2863.00
16:24:50:240 -> 2763.00
16:24:50:240 -> 2740.00
16:24:50:240 -> 2829.00
16:24:50:240 -> 2870.00
16:24:50:240 -> 2801.00
16:24:50:240 -> 2797.00
16:24:50:240 -> 2830.00
16:24:50:240 -> 2851.00
16:24:50:240 -> 2860.00
16:24:50:240 -> 2780.00
16:24:50:240 -> 2837.00
16:24:50:240 -> 2808.00
16:24:50:240 -> 2738.00
16:24:50:240 -> 2839.00
16:24:50:240 -> 2857.00
16:24:50:240 -> 2881.00
16:24:50:240 -> 2839.00
16:24:50:240 -> 2787.00
16:24:50:240 -> 2820.00
16:24:50:240 -> 2793.00
16:24:50:240 -> 2751.00
16:24:50:240 -> 2692.00
16:24:50:240 -> 2736.00
16:24:50:240 -> 2736.00
16:24:50:240 -> 2834.00
16:24:50:240 -> 2754.00
16:24:50:240 -> 2854.00
16:24:50:240 -> 2791.00
16:24:50:253 -> 2792.00
16:24:50:253 -> 2877.00
16:24:50:253 -> 2945.00
16:24:50:253 -> 2989.00
16:24:50:253 -> 2932.00
16:24:50:253 -> 2794.00
16:24:50:253 -> 2751.00
16:24:50:253 -> 2915.00
16:24:50:253 -> 2778.00
16:24:50:253 -> 2484.00
16:24:50:253 -> 2517.00
16:24:50:253 -> 2785.00
16:24:50:253 -> 2689.00
16:24:50:253 -> 2869.00
16:24:50:253 -> 2900.00
16:24:50:253 -> 2828.00
16:24:50:253 -> 2830.00
16:24:50:253 -> 2909.00
16:24:50:253 -> 2897.00
16:24:50:253 -> 2871.00
16:24:50:253 -> 2751.00
16:24:50:253 -> 2760.00
16:24:50:253 -> 2815.00
16:24:50:253 -> 2699.00
16:24:50:253 -> 2651.00
16:24:50:253 -> 2806.00
16:24:50:253 -> 3014.00
16:24:50:253 -> 2914.00
16:24:50:253 -> 2834.00
16:24:50:253 -> 2826.00
16:24:50:253 -> 2787.00
16:24:50:253 -> 2895.00
16:24:50:253 -> 2881.00
16:24:50:253 -> 2863.00
16:24:50:253 -> 2831.00
16:24:50:253 -> 2833.00
16:24:50:253 -> 2859.00
16:24:50:253 -> 2855.00
16:24:50:253 -> 2891.00
16:24:50:253 -> 2909.00
16:24:50:253 -> 2824.00
16:24:50:253 -> 2735.00
16:24:50:253 -> 2710.00
16:24:50:253 -> 2852.00
16:24:50:253 -> 2840.00
16:24:50:261 -> 2822.00
16:24:50:261 -> 2791.00
16:24:50:261 -> 2745.00
16:24:50:261 -> 2736.00
16:24:50:261 -> 2706.00
16:24:50:261 -> 2854.00
16:24:50:261 -> 2884.00
16:24:50:262 -> 2916.00
16:24:50:263 -> 2856.00
16:24:50:264 -> 2926.00
16:24:50:265 -> 2800.00
16:24:50:266 -> 2895.00
16:24:50:268 -> 2971.00
16:24:50:269 -> 2859.00
16:24:50:270 -> 2667.00
16:24:50:271 -> 2758.00
16:24:50:272 -> 2656.00
16:24:50:274 -> 2470.00
16:24:50:275 -> 2657.00
16:24:50:276 -> 2637.00
16:24:50:277 -> 2654.00
16:24:50:278 -> 2860.00
16:24:50:279 -> 2870.00
16:24:50:281 -> 2985.00
16:24:50:282 -> 2910.00
16:24:50:283 -> 2862.00
16:24:50:286 -> 2799.00
16:24:50:289 -> 2751.00
16:24:50:289 -> 2871.00
16:24:50:289 -> 2766.00
16:24:50:289 -> 2794.00
16:24:50:303 -> 2825.00
16:24:50:303 -> 2843.00
16:24:50:303 -> 2860.00
16:24:50:303 -> 2916.00
16:24:50:303 -> 2978.00
16:24:50:303 -> 2867.00
16:24:50:303 -> 2757.00
16:24:50:303 -> 2759.00
16:24:50:303 -> 2794.00
16:24:50:303 -> 2864.00
16:24:50:303 -> 2678.00
16:24:50:313 -> 2625.00
16:24:50:313 -> 2591.00
16:24:50:313 -> 2597.00
16:24:50:313 -> 3129.00
16:24:50:313 -> 3032.00
16:24:50:313 -> 2866.00
16:24:50:317 -> 2525.00
16:24:50:317 -> 2646.00
16:24:50:317 -> 2944.00
16:24:50:317 -> 3037.00
16:24:50:317 -> 2846.00
16:24:50:317 -> 2824.00
16:24:50:319 -> 2771.00
16:24:50:319 -> 2813.00
16:24:50:320 -> 2895.00
16:24:50:321 -> 2907.00
16:24:50:322 -> 2909.00
16:24:50:324 -> 2776.00
16:24:50:325 -> 2857.00
16:24:50:326 -> 2764.00
16:24:50:327 -> 2702.00
16:24:50:328 -> 2876.00
16:24:50:329 -> 2776.00
16:24:50:332 -> 2734.00
16:24:50:333 -> 2762.00
16:24:50:333 -> 2665.00
16:24:50:334 -> 2610.00
16:24:50:335 -> 2528.00
16:24:50:337 -> 2483.00
16:24:50:338 -> 2672.00
16:24:50:339 -> 2916.00
16:24:50:340 -> 3016.00
16:24:50:341 -> 2872.00
16:24:50:342 -> 2972.00
16:24:50:344 -> 2991.00
16:24:50:345 -> 2981.00
16:24:50:346 -> 3072.00
16:24:50:348 -> 2989.00
16:24:50:350 -> 2988.00
16:24:50:350 -> 2902.00
16:24:50:351 -> 2847.00
16:24:50:363 -> 2833.00
16:24:50:363 -> 2769.00
16:24:50:363 -> 2719.00
16:24:50:363 -> 2784.00
16:24:50:363 -> 2767.00
16:24:50:363 -> 2894.00
16:24:50:363 -> 2817.00
16:24:50:363 -> 2734.00
16:24:50:363 -> 2722.00
16:24:50:363 -> 2858.00
16:24:50:364 -> 2831.00
16:24:50:365 -> 2944.00
16:24:50:366 -> 2890.00
16:24:50:367 -> 2740.00
16:24:50:369 -> 2908.00
16:24:50:374 -> 2855.00
16:24:50:374 -> 2852.00
16:24:50:374 -> 2844.00
16:24:50:374 -> 2737.00
16:24:50:377 -> 2816.00
16:24:50:377 -> 2892.00
16:24:50:377 -> 2914.00
16:24:50:378 -> 2814.00
16:24:50:379 -> 2770.00
16:24:50:381 -> 2920.00
16:24:50:382 -> 2940.00
16:24:50:383 -> 2788.00
16:24:50:384 -> 2819.00
16:24:50:385 -> 2841.00
16:24:50:386 -> 2911.00
16:24:50:388 -> 2836.00
16:24:50:389 -> 2691.00
16:24:50:390 -> 2734.00
16:24:50:391 -> 2831.00
16:24:50:392 -> 2695.00
16:24:50:394 -> 2632.00
16:24:50:395 -> 3042.00
16:24:50:396 -> 2830.00
16:24:50:397 -> 2794.00
16:24:50:398 -> 2734.00
16:24:50:400 -> 2708.00
16:24:50:401 -> 2806.00
16:24:50:402 -> 2819.00
16:24:50:403 -> 2795.00
16:24:50:404 -> 2840.00
16:24:50:406 -> 2873.00
16:24:50:407 -> 2850.00
16:24:50:408 -> 2798.00
16:24:50:409 -> 2727.00
16:24:50:410 -> 2756.00
16:24:50:411 -> 2776.00
16:24:50:413 -> 2833.00
16:24:50:414 -> 2759.00
16:24:50:415 -> 2697.00
16:24:50:416 -> 2817.00
16:24:50:417 -> 2661.00
16:24:50:419 -> 2715.00
16:24:50:420 -> 2724.00
16:24:50:421 -> 2733.00
16:24:50:422 -> 2835.00
16:24:50:423 -> 2919.00
16:24:50:425 -> 3028.00
16:24:50:426 -> 3006.00
16:24:50:427 -> 2838.00
16:24:50:428 -> 2758.00
16:24:50:429 -> 2854.00
16:24:50:431 -> 2983.00
16:24:50:432 -> 2878.00
16:24:50:433 -> 2909.00
16:24:50:434 -> 2851.00
16:24:50:435 -> 2791.00
16:24:50:436 -> 2753.00
16:24:50:438 -> 2840.00
16:24:50:439 -> 2816.00
16:24:50:440 -> 2824.00
16:24:50:441 -> 2670.00
16:24:50:442 -> 2715.00
16:24:50:444 -> 2592.00
16:24:50:445 -> 2544.00
16:24:50:447 -> 2728.00
16:24:50:447 -> 2837.00
16:24:50:449 -> 2754.00
16:24:50:450 -> 2737.00
16:24:50:451 -> 2889.00
16:24:50:452 -> 2952.00
16:24:50:453 -> 2865.00
16:24:50:454 -> 2802.00
16:24:50:457 -> 2759.00
16:24:50:458 -> 2710.00
16:24:50:526 -> 2634.00
16:24:50:526 -> 2928.00
16:24:50:526 -> 2959.00
16:24:50:526 -> 2965.00
16:24:50:526 -> 2867.00
16:24:50:526 -> 2726.00
16:24:50:526 -> 2637.00
16:24:50:526 -> 2822.00
16:24:50:526 -> 2861.00
16:24:50:526 -> 3063.00
16:24:50:526 -> 3024.00
16:24:50:526 -> 2787.00
16:24:50:526 -> 2714.00
16:24:50:542 -> 2781.00
16:24:50:542 -> 2780.00
16:24:50:542 -> 2885.00
16:24:50:542 -> 2913.00
16:24:50:542 -> 2832.00
16:24:50:542 -> 2843.00
16:24:50:542 -> 2830.00
16:24:50:542 -> 2815.00
16:24:50:542 -> 2869.00
16:24:50:542 -> 2866.00
16:24:50:542 -> 2895.00
16:24:50:542 -> 2814.00
16:24:50:542 -> 2842.00
16:24:50:542 -> 2807.00
16:24:50:542 -> 2727.00
16:24:50:542 -> 2696.00
16:24:50:542 -> 2765.00
16:24:50:542 -> 2794.00
16:24:50:542 -> 2722.00
16:24:50:542 -> 2809.00
16:24:50:542 -> 2890.00
16:24:50:542 -> 2807.00
16:24:50:542 -> 2612.00
16:24:50:542 -> 2771.00
16:24:50:542 -> 2918.00
16:24:50:542 -> 2755.00
16:24:50:542 -> 2708.00
16:24:50:542 -> 2797.00
16:24:50:542 -> 2754.00
16:24:50:542 -> 2723.00
16:24:50:542 -> 2726.00
16:24:50:542 -> 2675.00
16:24:50:542 -> 2671.00
16:24:50:542 -> 2683.00
16:24:50:542 -> 2706.00
16:24:50:542 -> 2695.00
16:24:50:542 -> 2871.00
16:24:50:542 -> 2845.00
16:24:50:542 -> 2848.00
16:24:50:542 -> 2756.00
16:24:50:542 -> 2722.00
16:24:50:542 -> 2992.00
16:24:50:542 -> 2989.00
16:24:50:542 -> 3008.00
16:24:50:542 -> 3028.00
16:24:50:542 -> 2937.00
16:24:50:542 -> 2709.00
16:24:50:542 -> 2521.00
16:24:50:542 -> 2489.00
16:24:50:542 -> 2446.00
16:24:50:542 -> 2776.00
16:24:50:542 -> 2815.00
16:24:50:542 -> 2592.00
16:24:50:542 -> 2489.00
16:24:50:542 -> 2482.00
16:24:50:542 -> 3038.00
16:24:50:542 -> 3267.00
16:24:50:542 -> 2860.00
16:24:50:543 -> 2800.00
16:24:50:544 -> 2912.00
16:24:50:545 -> 2917.00
16:24:50:546 -> 2880.00
16:24:50:547 -> 2880.00
16:24:50:549 -> 3049.00
16:24:50:550 -> 2944.00
16:24:50:551 -> 2729.00
16:24:50:556 -> 2734.00
16:24:50:556 -> 2886.00
16:24:50:556 -> 2911.00
16:24:50:558 -> 2849.00
16:24:50:558 -> 2822.00
16:24:50:558 -> 2821.00
16:24:50:577 -> 2834.00
16:24:50:577 -> 2912.00
16:24:50:577 -> 2872.00
16:24:50:577 -> 2919.00
16:24:50:577 -> 2886.00
16:24:50:577 -> 2783.00
16:24:50:577 -> 2787.00
16:24:50:577 -> 2686.00
16:24:50:577 -> 2782.00
16:24:50:580 -> 2646.00
16:24:50:580 -> 2520.00
16:24:50:580 -> 2470.00
16:24:50:580 -> 2664.00
16:24:50:580 -> 3058.00
16:24:50:580 -> 3063.00
16:24:50:580 -> 2911.00
16:24:50:580 -> 2936.00
16:24:50:584 -> 2950.00
16:24:50:584 -> 2973.00
16:24:50:584 -> 2848.00
16:24:50:584 -> 2877.00
16:24:50:584 -> 2884.00
16:24:50:588 -> 2929.00
16:24:50:588 -> 2933.00
16:24:50:588 -> 2913.00
16:24:50:589 -> 2788.00
16:24:50:590 -> 2809.00
16:24:50:591 -> 2831.00
16:24:50:592 -> 2781.00
16:24:50:594 -> 2725.00
16:24:50:595 -> 2728.00
16:24:50:596 -> 2779.00
16:24:50:597 -> 2799.00
16:24:50:599 -> 2694.00
16:24:50:600 -> 2668.00
16:24:50:601 -> 2763.00
16:24:50:602 -> 2778.00
16:24:50:603 -> 2943.00
16:24:50:604 -> 2842.00
16:24:50:605 -> 2709.00
16:24:50:607 -> 2691.00
16:24:50:608 -> 2817.00
16:24:50:609 -> 2758.00
16:24:50:610 -> 2655.00
16:24:50:611 -> 2642.00
16:24:50:613 -> 2576.00
16:24:50:614 -> 2563.00
16:24:50:615 -> 2569.00
16:24:50:616 -> 2842.00
16:24:50:618 -> 2921.00
16:24:50:619 -> 2944.00
16:24:50:620 -> 2916.00
16:24:50:621 -> 2877.00
16:24:50:622 -> 2917.00
16:24:50:623 -> 2961.00
16:24:50:625 -> 2988.00
16:24:50:626 -> 2955.00
16:24:50:627 -> 2676.00
16:24:50:628 -> 2731.00
16:24:50:629 -> 2951.00
16:24:50:631 -> 2875.00
16:24:50:632 -> 2856.00
16:24:50:633 -> 2837.00
16:24:50:634 -> 2832.00
16:24:50:639 -> 2861.00
16:24:50:639 -> 2874.00
16:24:50:639 -> 2801.00
16:24:50:640 -> 2821.00
16:24:50:640 -> 2973.00
16:24:50:641 -> 2911.00
16:24:50:642 -> 2863.00
16:24:50:644 -> 2880.00
16:24:50:645 -> 2809.00
16:24:50:646 -> 2796.00
16:24:50:662 -> 2770.00
16:24:50:662 -> 2718.00
16:24:50:662 -> 2725.00
16:24:50:662 -> 2699.00
16:24:50:662 -> 2769.00
16:24:50:662 -> 2819.00
16:24:50:662 -> 2788.00
16:24:50:662 -> 2870.00
16:24:50:662 -> 3050.00
16:24:50:662 -> 2911.00
16:24:50:662 -> 2893.00
16:24:50:662 -> 2815.00
16:24:50:662 -> 2762.00
16:24:50:663 -> 2795.00
16:24:50:666 -> 2687.00
16:24:50:666 -> 2618.00
16:24:50:666 -> 2483.00
16:24:50:667 -> 2851.00
16:24:50:669 -> 3109.00
16:24:50:670 -> 2854.00
16:24:50:671 -> 2772.00
16:24:50:672 -> 2771.00
16:24:50:673 -> 2851.00
16:24:50:675 -> 2845.00
16:24:50:676 -> 2723.00
16:24:50:677 -> 2652.00
16:24:50:678 -> 2657.00
16:24:50:681 -> 2623.00
16:24:50:681 -> 2735.00
16:24:50:682 -> 2963.00
16:24:50:683 -> 3102.00
16:24:50:685 -> 3021.00
16:24:50:685 -> 2800.00
16:24:50:686 -> 2798.00
16:24:50:688 -> 2847.00
16:24:50:689 -> 2881.00
16:24:50:690 -> 2698.00
16:24:50:691 -> 2632.00
16:24:50:692 -> 2625.00
16:24:50:694 -> 2648.00
16:24:50:698 -> 2609.00
16:24:50:698 -> 2584.00
16:24:50:698 -> 2672.00
16:24:50:699 -> 2776.00
16:24:50:706 -> 2852.00
16:24:50:706 -> 2816.00
16:24:50:706 -> 2978.00
16:24:50:706 -> 2953.00
16:24:50:706 -> 2907.00
16:24:50:706 -> 2920.00
16:24:50:750 -> 2789.00
16:24:50:750 -> 2637.00
16:24:50:750 -> 2717.00
16:24:50:750 -> 2737.00
16:24:50:750 -> 2741.00
16:24:50:750 -> 2792.00
16:24:50:750 -> 2900.00
16:24:50:750 -> 3130.00
16:24:50:750 -> 2892.00
16:24:50:750 -> 2775.00
16:24:50:750 -> 2779.00
16:24:50:750 -> 2772.00
16:24:50:750 -> 2847.00
16:24:50:750 -> 2965.00
16:24:50:750 -> 2965.00
16:24:50:750 -> 3039.00
16:24:50:752 -> 2880.00
16:24:50:752 -> 2837.00
16:24:50:752 -> 2958.00
16:24:50:752 -> 2810.00
16:24:50:752 -> 2668.00
16:24:50:752 -> 2594.00
16:24:50:752 -> 2749.00
16:24:50:752 -> 2798.00
16:24:50:752 -> 2886.00
16:24:50:752 -> 2888.00
16:24:50:752 -> 2873.00
16:24:50:752 -> 2783.00
16:24:50:752 -> 2526.00
16:24:50:752 -> 2530.00
16:24:50:752 -> 2784.00
16:24:50:752 -> 2908.00
16:24:50:752 -> 3004.00
16:24:50:752 -> 2989.00
16:24:50:752 -> 2901.00
16:24:50:752 -> 2863.00
16:24:50:752 -> 2948.00
16:24:50:752 -> 2925.00
16:24:50:752 -> 2899.00
16:24:50:753 -> 2664.00
16:24:50:754 -> 2655.00
16:24:50:755 -> 2593.00
16:24:50:757 -> 2847.00
16:24:50:760 -> 2925.00
16:24:50:760 -> 2809.00
16:24:50:765 -> 2782.00
16:24:50:765 -> 2762.00
16:24:50:765 -> 2762.00
16:24:50:801 -> 2652.00
16:24:50:801 -> 2726.00
16:24:50:801 -> 2847.00
16:24:50:801 -> 2831.00
16:24:50:801 -> 2657.00
16:24:50:801 -> 2680.00
16:24:50:801 -> 2879.00
16:24:50:801 -> 2890.00
16:24:50:801 -> 2844.00
16:24:50:801 -> 2810.00
16:24:50:801 -> 2784.00
16:24:50:801 -> 2736.00
16:24:50:801 -> 2681.00
16:24:50:801 -> 2690.00
16:24:50:801 -> 2746.00
16:24:50:801 -> 2800.00
16:24:50:801 -> 2690.00
16:24:50:801 -> 2680.00
16:24:50:801 -> 2974.00
16:24:50:801 -> 2802.00
16:24:50:801 -> 2852.00
16:24:50:801 -> 2587.00
16:24:50:801 -> 2844.00
16:24:50:801 -> 2907.00
16:24:50:801 -> 2752.00
16:24:50:801 -> 2824.00
16:24:50:801 -> 2843.00
16:24:50:801 -> 2701.00
16:24:50:801 -> 2581.00
16:24:50:801 -> 2848.00
16:24:50:801 -> 2988.00
16:24:50:801 -> 2895.00
16:24:50:810 -> 2997.00
16:24:50:810 -> 3069.00
16:24:50:810 -> 3050.00
16:24:50:810 -> 2924.00
16:24:50:810 -> 2919.00
16:24:50:810 -> 2819.00
16:24:50:810 -> 2769.00
16:24:50:844 -> 2846.00
16:24:50:844 -> 2944.00
16:24:50:844 -> 2761.00
16:24:50:844 -> 2653.00
16:24:50:844 -> 2767.00
16:24:50:844 -> 2667.00
16:24:50:844 -> 2832.00
16:24:50:844 -> 2983.00
16:24:50:844 -> 2909.00
16:24:50:844 -> 2884.00
16:24:50:844 -> 3012.00
16:24:50:844 -> 3015.00
16:24:50:844 -> 2902.00
16:24:50:844 -> 2849.00
16:24:50:844 -> 2854.00
16:24:50:844 -> 2804.00
16:24:50:844 -> 2823.00
16:24:50:844 -> 2884.00
16:24:50:844 -> 2773.00
16:24:50:844 -> 2681.00
16:24:50:844 -> 2684.00
16:24:50:844 -> 2711.00
16:24:50:844 -> 2764.00
16:24:50:844 -> 2828.00
16:24:50:844 -> 2891.00
16:24:50:844 -> 2865.00
16:24:50:844 -> 2778.00
16:24:50:844 -> 2841.00
16:24:50:844 -> 2922.00
16:24:50:892 -> 2744.00
16:24:50:892 -> 2666.00
16:24:50:892 -> 2649.00
16:24:50:892 -> 2672.00
16:24:50:892 -> 2723.00
16:24:50:892 -> 2574.00
16:24:50:892 -> 2745.00
16:24:50:892 -> 2673.00
16:24:50:892 -> 2430.00
16:24:50:892 -> 2323.00
16:24:50:892 -> 2457.00
16:24:50:892 -> 2634.00
16:24:50:892 -> 2907.00
16:24:50:892 -> 3046.00
16:24:50:892 -> 2957.00
16:24:50:892 -> 2924.00
16:24:50:892 -> 2984.00
16:24:50:892 -> 3009.00
16:24:50:892 -> 2810.00
16:24:50:892 -> 2792.00
16:24:50:892 -> 2909.00
16:24:50:892 -> 2692.00
16:24:50:892 -> 2571.00
16:24:50:892 -> 2709.00
16:24:50:892 -> 2901.00
16:24:50:892 -> 2882.00
16:24:50:892 -> 2885.00
16:24:50:892 -> 2884.00
16:24:50:892 -> 2854.00
16:24:50:892 -> 2837.00
16:24:50:892 -> 2835.00
16:24:50:922 -> 2886.00
16:24:50:922 -> 2992.00
16:24:50:922 -> 2891.00
16:24:50:922 -> 2949.00
16:24:50:922 -> 2929.00
16:24:50:922 -> 2823.00
16:24:50:922 -> 2768.00
16:24:50:922 -> 2851.00
16:24:50:922 -> 2999.00
16:24:50:922 -> 3013.00
16:24:50:922 -> 2820.00
16:24:50:922 -> 2699.00
16:24:50:922 -> 2913.00
16:24:50:922 -> 2803.00
16:24:50:922 -> 2794.00
16:24:50:922 -> 2857.00
16:24:50:922 -> 2887.00
16:24:50:922 -> 2831.00
16:24:50:922 -> 2835.00
16:24:50:922 -> 2852.00
16:24:50:922 -> 2816.00
16:24:50:922 -> 2922.00
16:24:50:922 -> 2860.00
16:24:50:922 -> 2763.00
16:24:50:922 -> 2664.00
16:24:50:922 -> 2707.00
16:24:50:922 -> 2824.00
16:24:50:922 -> 2871.00
16:24:50:922 -> 2877.00
16:24:50:922 -> 2771.00
16:24:50:922 -> 2773.00
16:24:50:922 -> 2819.00
16:24:50:922 -> 2719.00
16:24:50:928 -> 2877.00
16:24:50:928 -> 2678.00
16:24:50:928 -> 2656.00
16:24:50:928 -> 2959.00
16:24:50:928 -> 2946.00
16:24:50:928 -> 2857.00
16:24:50:928 -> 2871.00
16:24:50:933 -> 2818.00
16:24:50:933 -> 2851.00
16:24:50:933 -> 2839.00
16:24:50:933 -> 2847.00
16:24:50:962 -> 2798.00
16:24:50:962 -> 2841.00
16:24:50:962 -> 2915.00
16:24:50:962 -> 2593.00
16:24:50:962 -> 2377.00
16:24:50:962 -> 2572.00
16:24:50:962 -> 2540.00
16:24:50:962 -> 2658.00
16:24:50:962 -> 2741.00
16:24:50:962 -> 2905.00
16:24:50:962 -> 2923.00
16:24:50:962 -> 2893.00
16:24:50:962 -> 2798.00
16:24:50:962 -> 2835.00
16:24:50:962 -> 2899.00
16:24:50:962 -> 2817.00
16:24:50:962 -> 2718.00
16:24:50:962 -> 2729.00
16:24:50:962 -> 2679.00
16:24:50:962 -> 2489.00
16:24:50:962 -> 3015.00
16:24:50:962 -> 3029.00
16:24:50:962 -> 3023.00
16:24:50:962 -> 2965.00
16:24:50:963 -> 2918.00
16:24:50:964 -> 2840.00
16:24:50:969 -> 2876.00
16:24:50:969 -> 2883.00
16:24:50:969 -> 2843.00
16:24:50:969 -> 2716.00
16:24:50:973 -> 2806.00
16:24:50:973 -> 2870.00
16:24:50:973 -> 2966.00
16:24:50:976 -> 2839.00
16:24:50:976 -> 2788.00
16:24:50:976 -> 2932.00
16:24:50:977 -> 2894.00
16:24:50:978 -> 2796.00
16:24:50:979 -> 2721.00
16:24:50:980 -> 2654.00
16:24:50:982 -> 2756.00
16:24:50:983 -> 3020.00
16:24:50:984 -> 3086.00
16:24:50:985 -> 3008.00
16:24:50:986 -> 2961.00
16:24:50:987 -> 2767.00
16:24:50:989 -> 2701.00
16:24:50:990 -> 2918.00
16:24:50:991 -> 2870.00
16:24:50:992 -> 2826.00
16:24:50:993 -> 2794.00
16:24:50:995 -> 2807.00
16:24:50:996 -> 2807.00
16:24:50:997 -> 2824.00
16:24:50:998 -> 2877.00
16:24:50:999 -> 2828.00
16:24:51:001 -> 2846.00
16:24:51:002 -> 2875.00
16:24:51:003 -> 2910.00
16:24:51:004 -> 2851.00
16:24:51:006 -> 2792.00
16:24:51:007 -> 2833.00
16:24:51:008 -> 2859.00
16:24:51:009 -> 2838.00
16:24:51:011 -> 2867.00
16:24:51:012 -> 2783.00
16:24:51:013 -> 2705.00
16:24:51:014 -> 2711.00
16:24:51:017 -> 2804.00
16:24:51:017 -> 2775.00
16:24:51:028 -> 2846.00
16:24:51:028 -> 2800.00
16:24:51:028 -> 2774.00
16:24:51:028 -> 2767.00
16:24:51:028 -> 2730.00
16:24:51:028 -> 2650.00
16:24:51:028 -> 2570.00
16:24:51:028 -> 2738.00
16:24:51:028 -> 3109.00
16:24:51:028 -> 3082.00
16:24:51:031 -> 2697.00
16:24:51:031 -> 2578.00
16:24:51:032 -> 2609.00
16:24:51:036 -> 2651.00
16:24:51:036 -> 2962.00
16:24:51:036 -> 2879.00
16:24:51:037 -> 2733.00
16:24:51:048 -> 2799.00
16:24:51:048 -> 2843.00
16:24:51:048 -> 3023.00
16:24:51:048 -> 2987.00
16:24:51:048 -> 2994.00
16:24:51:048 -> 2860.00
16:24:51:048 -> 2903.00
16:24:51:048 -> 2865.00
16:24:51:048 -> 2957.00
16:24:51:051 -> 2903.00
16:24:51:051 -> 2773.00
16:24:51:051 -> 2781.00
16:24:51:052 -> 2824.00
16:24:51:053 -> 2749.00
16:24:51:054 -> 2822.00
16:24:51:055 -> 2815.00
16:24:51:057 -> 2834.00
16:24:51:058 -> 2929.00
16:24:51:059 -> 2965.00
16:24:51:060 -> 2936.00
16:24:51:062 -> 2786.00
16:24:51:062 -> 2936.00
16:24:51:064 -> 2905.00
16:24:51:065 -> 2806.00
16:24:51:077 -> 2674.00
16:24:51:077 -> 2761.00
16:24:51:077 -> 2907.00
16:24:51:077 -> 2869.00
16:24:51:077 -> 2847.00
16:24:51:077 -> 2793.00
16:24:51:077 -> 2809.00
16:24:51:077 -> 2853.00
16:24:51:077 -> 2825.00
16:24:51:077 -> 2804.00
16:24:51:078 -> 2788.00
16:24:51:107 -> 2796.00
16:24:51:107 -> 2753.00
16:24:51:107 -> 2794.00
16:24:51:107 -> 2814.00
16:24:51:107 -> 2823.00
16:24:51:107 -> 2979.00
16:24:51:107 -> 2960.00
16:24:51:107 -> 2834.00
16:24:51:107 -> 2741.00
16:24:51:115 -> 2783.00
16:24:51:115 -> 2844.00
16:24:51:115 -> 2719.00
16:24:51:115 -> 2785.00
16:24:51:115 -> 2745.00
16:24:51:115 -> 2726.00
16:24:51:115 -> 2868.00
16:24:51:115 -> 2843.00
16:24:51:115 -> 2655.00
16:24:51:115 -> 2560.00
16:24:51:115 -> 2644.00
16:24:51:115 -> 2654.00
16:24:51:115 -> 2859.00
16:24:51:115 -> 3127.00
16:24:51:115 -> 3146.00
16:24:51:115 -> 3070.00
16:24:51:115 -> 3054.00
16:24:51:115 -> 2936.00
16:24:51:115 -> 2726.00
16:24:51:117 -> 2743.00
16:24:51:117 -> 2710.00
16:24:51:117 -> 2722.00
16:24:51:117 -> 2720.00
16:24:51:118 -> 2665.00
16:24:51:119 -> 2648.00
16:24:51:120 -> 2577.00
16:24:51:121 -> 2700.00
16:24:51:123 -> 2962.00
16:24:51:126 -> 3065.00
16:24:51:126 -> 2896.00
16:24:51:126 -> 2853.00
16:24:51:127 -> 2968.00
16:24:51:128 -> 3017.00
16:24:51:129 -> 2920.00
16:24:51:130 -> 2827.00
16:24:51:132 -> 2826.00
16:24:51:133 -> 2906.00
16:24:51:134 -> 2953.00
16:24:51:135 -> 2921.00
16:24:51:136 -> 2908.00
16:24:51:137 -> 2901.00
16:24:51:139 -> 2967.00
16:24:51:150 -> 2927.00
16:24:51:150 -> 2846.00
16:24:51:150 -> 2905.00
16:24:51:150 -> 2816.00
16:24:51:150 -> 2687.00
16:24:51:150 -> 2705.00
16:24:51:150 -> 2849.00
16:24:51:150 -> 2874.00
16:24:51:150 -> 2774.00
16:24:51:151 -> 2834.00
16:24:51:152 -> 2733.00
16:24:51:160 -> 2960.00
16:24:51:160 -> 2985.00
16:24:51:160 -> 2927.00
16:24:51:160 -> 2877.00
16:24:51:160 -> 2834.00
16:24:51:166 -> 2909.00
16:24:51:166 -> 2873.00
16:24:51:166 -> 2800.00
16:24:51:166 -> 2794.00
16:24:51:166 -> 2802.00
16:24:51:166 -> 2664.00
16:24:51:167 -> 2741.00
16:24:51:167 -> 2867.00
16:24:51:168 -> 2893.00
16:24:51:170 -> 2879.00
16:24:51:171 -> 2861.00
16:24:51:175 -> 2826.00
16:24:51:175 -> 2866.00
16:24:51:175 -> 2817.00
16:24:51:178 -> 2700.00
16:24:51:178 -> 2760.00
16:24:51:178 -> 2740.00
16:24:51:206 -> 2564.00
16:24:51:206 -> 2642.00
16:24:51:206 -> 2867.00
16:24:51:206 -> 2825.00
16:24:51:206 -> 2908.00
16:24:51:206 -> 2974.00
16:24:51:206 -> 2951.00
16:24:51:206 -> 2882.00
16:24:51:206 -> 2863.00
16:24:51:206 -> 2796.00
16:24:51:206 -> 2886.00
16:24:51:206 -> 2900.00
16:24:51:206 -> 2872.00
16:24:51:206 -> 2867.00
16:24:51:206 -> 2766.00
16:24:51:206 -> 2803.00
16:24:51:206 -> 2723.00
16:24:51:206 -> 2718.00
16:24:51:225 -> 2712.00
16:24:51:225 -> 2705.00
16:24:51:225 -> 2861.00
16:24:51:225 -> 2901.00
16:24:51:225 -> 2912.00
16:24:51:225 -> 3202.00
16:24:51:225 -> 3211.00
16:24:51:225 -> 2926.00
16:24:51:225 -> 2652.00
16:24:51:225 -> 2693.00
16:24:51:225 -> 2785.00
16:24:51:225 -> 2826.00
16:24:51:225 -> 2756.00
16:24:51:225 -> 2857.00
16:24:51:225 -> 2870.00
16:24:51:225 -> 2830.00
16:24:51:225 -> 2765.00
16:24:51:225 -> 2732.00
16:24:51:225 -> 2857.00
16:24:51:225 -> 2980.00
16:24:51:225 -> 3006.00
16:24:51:227 -> 2831.00
16:24:51:227 -> 2784.00
16:24:51:228 -> 2776.00
16:24:51:235 -> 2789.00
16:24:51:235 -> 2813.00
16:24:51:235 -> 2827.00
16:24:51:235 -> 2929.00
16:24:51:235 -> 2930.00
16:24:51:235 -> 2902.00
16:24:51:242 -> 2869.00
16:24:51:242 -> 2766.00
16:24:51:242 -> 2748.00
16:24:51:242 -> 2829.00
16:24:51:242 -> 2838.00
16:24:51:245 -> 2742.00
16:24:51:245 -> 2834.00
16:24:51:245 -> 2922.00
16:24:51:274 -> 2943.00
16:24:51:274 -> 2900.00
16:24:51:281 -> 2868.00
16:24:51:281 -> 2873.00
16:24:51:281 -> 2857.00
16:24:51:281 -> 2898.00
16:24:51:281 -> 2907.00
16:24:51:281 -> 2911.00
16:24:51:281 -> 2951.00
16:24:51:281 -> 2676.00
16:24:51:281 -> 2627.00
16:24:51:281 -> 2636.00
16:24:51:281 -> 2587.00
16:24:51:281 -> 2916.00
16:24:51:281 -> 2919.00
16:24:51:281 -> 2871.00
16:24:51:281 -> 2932.00
16:24:51:281 -> 2874.00
16:24:51:281 -> 2856.00
16:24:51:281 -> 2827.00
16:24:51:281 -> 2774.00
16:24:51:281 -> 2753.00
16:24:51:281 -> 2838.00
16:24:51:281 -> 2915.00
16:24:51:281 -> 2827.00
16:24:51:281 -> 2805.00
16:24:51:281 -> 2827.00
16:24:51:281 -> 2736.00
16:24:51:281 -> 2716.00
16:24:51:281 -> 2777.00
16:24:51:303 -> 2842.00
16:24:51:303 -> 2986.00
16:24:51:303 -> 2876.00
16:24:51:303 -> 2742.00
16:24:51:303 -> 2677.00
16:24:51:303 -> 2754.00
16:24:51:303 -> 2836.00
16:24:51:303 -> 2823.00
16:24:51:303 -> 2872.00
16:24:51:303 -> 2888.00
16:24:51:303 -> 2940.00
16:24:51:303 -> 2963.00
16:24:51:303 -> 3073.00
16:24:51:303 -> 2994.00
16:24:51:303 -> 2772.00
16:24:51:303 -> 2658.00
16:24:51:303 -> 2726.00
16:24:51:303 -> 2787.00
16:24:51:303 -> 2904.00
16:24:51:309 -> 3082.00
16:24:51:309 -> 3200.00
16:24:51:309 -> 3010.00
16:24:51:309 -> 2717.00
16:24:51:311 -> 2872.00
16:24:51:311 -> 2783.00
16:24:51:312 -> 2687.00
16:24:51:313 -> 2711.00
16:24:51:314 -> 2769.00
16:24:51:315 -> 2791.00
16:24:51:317 -> 2876.00
16:24:51:318 -> 2888.00
16:24:51:318 -> 2947.00
16:24:51:320 -> 2959.00
16:24:51:321 -> 2908.00
16:24:51:322 -> 2879.00
16:24:51:323 -> 2917.00
16:24:51:324 -> 2917.00
16:24:51:326 -> 2898.00
16:24:51:327 -> 2868.00
16:24:51:328 -> 2882.00
16:24:51:329 -> 2800.00
16:24:51:330 -> 2785.00
16:24:51:334 -> 2851.00
16:24:51:334 -> 2823.00
16:24:51:336 -> 2728.00
16:24:51:336 -> 2732.00
16:24:51:337 -> 2831.00
16:24:51:337 -> 2875.00
16:24:51:339 -> 2822.00
16:24:51:340 -> 2791.00
16:24:51:341 -> 2676.00
16:24:51:342 -> 2764.00
16:24:51:343 -> 2783.00
16:24:51:345 -> 2841.00
16:24:51:346 -> 2866.00
16:24:51:347 -> 2836.00
16:24:51:348 -> 2754.00
16:24:51:349 -> 2738.00
16:24:51:351 -> 2588.00
16:24:51:352 -> 2644.00
16:24:51:353 -> 2934.00
16:24:51:354 -> 2925.00
16:24:51:355 -> 2901.00
16:24:51:356 -> 2772.00
16:24:51:358 -> 2880.00
16:24:51:359 -> 2942.00
16:24:51:360 -> 2759.00
16:24:51:369 -> 2567.00
16:24:51:369 -> 2729.00
16:24:51:369 -> 2749.00
16:24:51:369 -> 2692.00
16:24:51:369 -> 2726.00
16:24:51:384 -> 2821.00
16:24:51:384 -> 2810.00
16:24:51:384 -> 3013.00
16:24:51:384 -> 3140.00
16:24:51:384 -> 2939.00
16:24:51:384 -> 2881.00
16:24:51:384 -> 2901.00
16:24:51:384 -> 2804.00
16:24:51:384 -> 2836.00
16:24:51:384 -> 2767.00
16:24:51:384 -> 2902.00
16:24:51:384 -> 3128.00
16:24:51:384 -> 3084.00
16:24:51:384 -> 3058.00
16:24:51:384 -> 2980.00
16:24:51:389 -> 2783.00
16:24:51:389 -> 2775.00
16:24:51:389 -> 2782.00
16:24:51:389 -> 2924.00
16:24:51:404 -> 2956.00
16:24:51:404 -> 2784.00
16:24:51:404 -> 2877.00
16:24:51:404 -> 2883.00
16:24:51:404 -> 2811.00
16:24:51:404 -> 2752.00
16:24:51:404 -> 2821.00
16:24:51:404 -> 2918.00
16:24:51:404 -> 2881.00
16:24:51:404 -> 2903.00
16:24:51:404 -> 2874.00
16:24:51:404 -> 2877.00
16:24:51:424 -> 2865.00
16:24:51:424 -> 2862.00
16:24:51:424 -> 2848.00
16:24:51:424 -> 2838.00
16:24:51:424 -> 2783.00
16:24:51:424 -> 2790.00
16:24:51:424 -> 2770.00
16:24:51:424 -> 2805.00
16:24:51:424 -> 2682.00
16:24:51:424 -> 2697.00
16:24:51:424 -> 2709.00
16:24:51:424 -> 2654.00
16:24:51:424 -> 2833.00
16:24:51:424 -> 3146.00
16:24:51:424 -> 3068.00
16:24:51:424 -> 2984.00
16:24:51:426 -> 2928.00
16:24:51:426 -> 2859.00
16:24:51:426 -> 2740.00
16:24:51:427 -> 2752.00
16:24:51:428 -> 2730.00
16:24:51:429 -> 2748.00
16:24:51:430 -> 2753.00
16:24:51:431 -> 2869.00
16:24:51:433 -> 2901.00
16:24:51:434 -> 2722.00
16:24:51:435 -> 2666.00
16:24:51:436 -> 2637.00
16:24:51:437 -> 2558.00
16:24:51:439 -> 2976.00
16:24:51:440 -> 2888.00
16:24:51:441 -> 2858.00
16:24:51:442 -> 2943.00
16:24:51:443 -> 2741.00
16:24:51:445 -> 2870.00
16:24:51:446 -> 2883.00
16:24:51:447 -> 2822.00
16:24:51:448 -> 2983.00
16:24:51:449 -> 2951.00
16:24:51:450 -> 2758.00
16:24:51:452 -> 2787.00
16:24:51:453 -> 2849.00
16:24:51:456 -> 2798.00
16:24:51:456 -> 2707.00
16:24:51:458 -> 2934.00
16:24:51:463 -> 2841.00
16:24:51:463 -> 2711.00
16:24:51:463 -> 2917.00
16:24:51:463 -> 3036.00
16:24:51:463 -> 3202.00
16:24:51:464 -> 3076.00
16:24:51:465 -> 3035.00
16:24:51:466 -> 2832.00
16:24:51:467 -> 2765.00
16:24:51:468 -> 2855.00
16:24:51:477 -> 2940.00
16:24:51:477 -> 2922.00
16:24:51:477 -> 2801.00
16:24:51:477 -> 2733.00
16:24:51:477 -> 2750.00
16:24:51:477 -> 2734.00
16:24:51:477 -> 2739.00
16:24:51:479 -> 2823.00
16:24:51:479 -> 2860.00
16:24:51:480 -> 2752.00
16:24:51:481 -> 3074.00
16:24:51:483 -> 3056.00
16:24:51:484 -> 2967.00
16:24:51:485 -> 2973.00
16:24:51:486 -> 2904.00
16:24:51:487 -> 2779.00
16:24:51:490 -> 2770.00
16:24:51:490 -> 2755.00
16:24:51:493 -> 2786.00
16:24:51:493 -> 2852.00
16:24:51:493 -> 2921.00
16:24:51:495 -> 2900.00
16:24:51:496 -> 2798.00
16:24:51:497 -> 2756.00
16:24:51:498 -> 2795.00
16:24:51:499 -> 2868.00
16:24:51:500 -> 2889.00
16:24:51:502 -> 2858.00
16:24:51:503 -> 2861.00
16:24:51:504 -> 2889.00
16:24:51:505 -> 2793.00
16:24:51:506 -> 2804.00
16:24:51:508 -> 2782.00
16:24:51:509 -> 2829.00
16:24:51:510 -> 2946.00
16:24:51:511 -> 2979.00
16:24:51:512 -> 2812.00
16:24:51:513 -> 2655.00
16:24:51:515 -> 2885.00
16:24:51:516 -> 2860.00
16:24:51:517 -> 2746.00
16:24:51:518 -> 2735.00
16:24:51:519 -> 2757.00
16:24:51:521 -> 2766.00
16:24:51:522 -> 2691.00
16:24:51:523 -> 2610.00
16:24:51:524 -> 2632.00
16:24:51:525 -> 2750.00
16:24:51:527 -> 2806.00
16:24:51:528 -> 2785.00
16:24:51:529 -> 2883.00
16:24:51:530 -> 3130.00
16:24:51:532 -> 3083.00
16:24:51:533 -> 2971.00
16:24:51:534 -> 2887.00
16:24:51:535 -> 2873.00
16:24:51:548 -> 2856.00
16:24:51:548 -> 2797.00
16:24:51:548 -> 2791.00
16:24:51:548 -> 2846.00
16:24:51:548 -> 2836.00
16:24:51:548 -> 2853.00
16:24:51:548 -> 2804.00
16:24:51:548 -> 3056.00
16:24:51:548 -> 3296.00
16:24:51:552 -> 3077.00
16:24:51:552 -> 2807.00
16:24:51:552 -> 2647.00
16:24:51:552 -> 2737.00
16:24:51:558 -> 2671.00
16:24:51:558 -> 2762.00
16:24:51:558 -> 2823.00
16:24:51:558 -> 2831.00
16:24:51:558 -> 2950.00
16:24:51:558 -> 2905.00
16:24:51:563 -> 2957.00
16:24:51:563 -> 3008.00
16:24:51:563 -> 3011.00
16:24:51:563 -> 2975.00
16:24:51:564 -> 2892.00
16:24:51:572 -> 2766.00
16:24:51:572 -> 2841.00
16:24:51:572 -> 2903.00
16:24:51:572 -> 2789.00
16:24:51:572 -> 2852.00
16:24:51:572 -> 3008.00
16:24:51:572 -> 2943.00
16:24:51:577 -> 2901.00
16:24:51:577 -> 2892.00
16:24:51:577 -> 2892.00
16:24:51:577 -> 2851.00
16:24:51:610 -> 2833.00
16:24:51:610 -> 2839.00
16:24:51:610 -> 2823.00
16:24:51:610 -> 2860.00
16:24:51:610 -> 2894.00
16:24:51:610 -> 2859.00
16:24:51:610 -> 2882.00
16:24:51:610 -> 2864.00
16:24:51:610 -> 2828.00
16:24:51:610 -> 2838.00
16:24:51:610 -> 2853.00
16:24:51:610 -> 2804.00
16:24:51:623 -> 2732.00
16:24:51:623 -> 2792.00
16:24:51:623 -> 2806.00
16:24:51:623 -> 2869.00
16:24:51:623 -> 2727.00
16:24:51:623 -> 2551.00
16:24:51:623 -> 2679.00
16:24:51:623 -> 2945.00
16:24:51:623 -> 2951.00
16:24:51:623 -> 2942.00
16:24:51:623 -> 2919.00
16:24:51:623 -> 2850.00
16:24:51:623 -> 2791.00
16:24:51:623 -> 2927.00
16:24:51:623 -> 2883.00
16:24:51:623 -> 2929.00
16:24:51:623 -> 2900.00
16:24:51:623 -> 2875.00
16:24:51:623 -> 2874.00
16:24:51:623 -> 2807.00
16:24:51:623 -> 2702.00
16:24:51:623 -> 2742.00
16:24:51:623 -> 2728.00
16:24:51:623 -> 2952.00
16:24:51:623 -> 2968.00
16:24:51:623 -> 2997.00
16:24:51:623 -> 3028.00
16:24:51:636 -> 2933.00
16:24:51:636 -> 3032.00
16:24:51:636 -> 2942.00
16:24:51:636 -> 2899.00
16:24:51:636 -> 2861.00
16:24:51:636 -> 2802.00
16:24:51:636 -> 2779.00
16:24:51:636 -> 2857.00
16:24:51:636 -> 2966.00
16:24:51:636 -> 2954.00
16:24:51:651 -> 2902.00
16:24:51:651 -> 2887.00
16:24:51:651 -> 2873.00
16:24:51:651 -> 2852.00
16:24:51:651 -> 2844.00
16:24:51:651 -> 2891.00
16:24:51:651 -> 2896.00
16:24:51:651 -> 2792.00
16:24:51:651 -> 2862.00
16:24:51:651 -> 2997.00
16:24:51:651 -> 2838.00
16:24:51:651 -> 2742.00
16:24:51:651 -> 2877.00
16:24:51:655 -> 2821.00
16:24:51:655 -> 2647.00
16:24:51:655 -> 2883.00
16:24:51:705 -> 2846.00
16:24:51:705 -> 2777.00
16:24:51:705 -> 2833.00
16:24:51:705 -> 2803.00
16:24:51:705 -> 2819.00
16:24:51:705 -> 2916.00
16:24:51:705 -> 2881.00
16:24:51:705 -> 2966.00
16:24:51:705 -> 2980.00
16:24:51:705 -> 2915.00
16:24:51:705 -> 2863.00
16:24:51:705 -> 2864.00
16:24:51:705 -> 2862.00
16:24:51:705 -> 2815.00
16:24:51:705 -> 2828.00
16:24:51:705 -> 2751.00
16:24:51:705 -> 2809.00
16:24:51:705 -> 2824.00
16:24:51:705 -> 2810.00
16:24:51:705 -> 2902.00
16:24:51:705 -> 2883.00
16:24:51:705 -> 2919.00
16:24:51:705 -> 2837.00
16:24:51:705 -> 2824.00
16:24:51:705 -> 2761.00
16:24:51:705 -> 2729.00
16:24:51:705 -> 2815.00
16:24:51:705 -> 2905.00
16:24:51:705 -> 3002.00
16:24:51:705 -> 3063.00
16:24:51:705 -> 2952.00
16:24:51:705 -> 2822.00
16:24:51:705 -> 2790.00
16:24:51:705 -> 2776.00
16:24:51:705 -> 2736.00
16:24:51:705 -> 2751.00
16:24:51:708 -> 2835.00
16:24:51:708 -> 2908.00
16:24:51:708 -> 3012.00
16:24:51:708 -> 3074.00
16:24:51:708 -> 3034.00
16:24:51:708 -> 2988.00
16:24:51:708 -> 2859.00
16:24:51:708 -> 2838.00
16:24:51:708 -> 2607.00
16:24:51:722 -> 2501.00
16:24:51:722 -> 2564.00
16:24:51:722 -> 2778.00
16:24:51:722 -> 3041.00
16:24:51:722 -> 2973.00
16:24:51:722 -> 2900.00
16:24:51:722 -> 2815.00
16:24:51:722 -> 2878.00
16:24:51:722 -> 2926.00
16:24:51:722 -> 3021.00
16:24:51:722 -> 2957.00
16:24:51:722 -> 2987.00
16:24:51:755 -> 2947.00
16:24:51:755 -> 2940.00
16:24:51:755 -> 2912.00
16:24:51:755 -> 2943.00
16:24:51:755 -> 2908.00
16:24:51:755 -> 2902.00
16:24:51:755 -> 2841.00
16:24:51:755 -> 2851.00
16:24:51:755 -> 2845.00
16:24:51:755 -> 2862.00
16:24:51:755 -> 2867.00
16:24:51:755 -> 2843.00
16:24:51:755 -> 2869.00
16:24:51:755 -> 2890.00
16:24:51:755 -> 2881.00
16:24:51:755 -> 2879.00
16:24:51:755 -> 2891.00
16:24:51:755 -> 2926.00
16:24:51:755 -> 2925.00
16:24:51:755 -> 2900.00
16:24:51:755 -> 2910.00
16:24:51:755 -> 2911.00
16:24:51:755 -> 2899.00
16:24:51:755 -> 2812.00
16:24:51:755 -> 2834.00
16:24:51:755 -> 2870.00
16:24:51:755 -> 2869.00
16:24:51:828 -> 2833.00
16:24:51:828 -> 2814.00
16:24:51:828 -> 2872.00
16:24:51:828 -> 2927.00
16:24:51:828 -> 2890.00
16:24:51:828 -> 2852.00
16:24:51:828 -> 2907.00
16:24:51:828 -> 2910.00
16:24:51:828 -> 2899.00
16:24:51:828 -> 2908.00
16:24:51:828 -> 2920.00
16:24:51:828 -> 2924.00
16:24:51:828 -> 2879.00
16:24:51:828 -> 2820.00
16:24:51:828 -> 2909.00
16:24:51:828 -> 2884.00
16:24:51:828 -> 2892.00
16:24:51:828 -> 2908.00
16:24:51:828 -> 2895.00
16:24:51:828 -> 2888.00
16:24:51:828 -> 2908.00
16:24:51:828 -> 2905.00
16:24:51:839 -> 2893.00
16:24:51:839 -> 2889.00
16:24:51:839 -> 2857.00
16:24:51:839 -> 2865.00
16:24:51:839 -> 2831.00
16:24:51:839 -> 2790.00
16:24:51:839 -> 2781.00
16:24:51:839 -> 2777.00
16:24:51:839 -> 2830.00
16:24:51:839 -> 2855.00
16:24:51:839 -> 2840.00
16:24:51:839 -> 2830.00
16:24:51:839 -> 2849.00
16:24:51:839 -> 2848.00
16:24:51:839 -> 2863.00
16:24:51:839 -> 2873.00
16:24:51:839 -> 2888.00
16:24:51:839 -> 2933.00
16:24:51:839 -> 2947.00
16:24:51:839 -> 2925.00
16:24:51:839 -> 2925.00
16:24:51:839 -> 2914.00
16:24:51:839 -> 2923.00
16:24:51:839 -> 2917.00
16:24:51:839 -> 2869.00
16:24:51:839 -> 2820.00
16:24:51:839 -> 2869.00
16:24:51:839 -> 2902.00
16:24:51:839 -> 2876.00
16:24:51:839 -> 2871.00
16:24:51:839 -> 2855.00
16:24:51:839 -> 2851.00
16:24:51:839 -> 2854.00
16:24:51:839 -> 2857.00
16:24:51:839 -> 2831.00
16:24:51:839 -> 2830.00
16:24:51:839 -> 2886.00
16:24:51:839 -> 2900.00
16:24:51:839 -> 2916.00
16:24:51:839 -> 2910.00
16:24:51:839 -> 2860.00
16:24:51:839 -> 2794.00
16:24:51:839 -> 2759.00
16:24:51:839 -> 2842.00
16:24:51:839 -> 2887.00
16:24:51:839 -> 2877.00
16:24:51:839 -> 2835.00
16:24:51:839 -> 2864.00
16:24:51:839 -> 2893.00
16:24:51:848 -> 2887.00
16:24:51:848 -> 2908.00
16:24:51:848 -> 2961.00
16:24:51:848 -> 2922.00
16:24:51:848 -> 2953.00
16:24:51:848 -> 2923.00
16:24:51:848 -> 2890.00
16:24:51:854 -> 2872.00
16:24:51:854 -> 2815.00
16:24:51:854 -> 2820.00
16:24:51:854 -> 2788.00
16:24:51:854 -> 2817.00
16:24:51:854 -> 2843.00
16:24:51:869 -> 2904.00
16:24:51:869 -> 2926.00
16:24:51:869 -> 2863.00
16:24:51:869 -> 2873.00
16:24:51:869 -> 2908.00
16:24:51:869 -> 2966.00
16:24:51:869 -> 2948.00
16:24:51:869 -> 2917.00
16:24:51:869 -> 2911.00
16:24:51:869 -> 2899.00
16:24:51:869 -> 2906.00
16:24:51:869 -> 2874.00
16:24:51:887 -> 2863.00
16:24:51:887 -> 2846.00
16:24:51:887 -> 2802.00
16:24:51:887 -> 2846.00
16:24:51:887 -> 2859.00
16:24:51:887 -> 2857.00
16:24:51:887 -> 2852.00
16:24:51:887 -> 2863.00
16:24:51:887 -> 2898.00
16:24:51:887 -> 2922.00
16:24:51:887 -> 2923.00
16:24:51:887 -> 2935.00
16:24:51:887 -> 2916.00
16:24:51:887 -> 2881.00
16:24:51:887 -> 2894.00
16:24:51:894 -> 2897.00
16:24:51:894 -> 2849.00
16:24:51:894 -> 2836.00
16:24:51:894 -> 2838.00
16:24:51:894 -> 2832.00
16:24:51:894 -> 2850.00
16:24:51:900 -> 2863.00
16:24:51:900 -> 2872.00
16:24:51:900 -> 2802.00
16:24:51:900 -> 2848.00
16:24:51:900 -> 2854.00
16:24:51:904 -> 2907.00
16:24:51:904 -> 2947.00
16:24:51:904 -> 2913.00
16:24:51:904 -> 2898.00
16:24:51:905 -> 2885.00
16:24:51:911 -> 2850.00
16:24:51:911 -> 2870.00
16:24:51:911 -> 2879.00
16:24:51:911 -> 2848.00
