10:48:20:127 -> 2048.00
10:48:20:137 -> 1987.00
10:48:20:148 -> 2059.00
10:48:20:158 -> 1957.00
10:48:20:169 -> 2057.00
10:48:20:179 -> 1942.00
10:48:20:190 -> 2044.00
10:48:20:200 -> 1995.00
10:48:20:210 -> 2032.00
10:48:20:221 -> 1972.00
10:48:20:231 -> 2050.00
10:48:20:242 -> 2049.00
10:48:20:252 -> 2152.00
10:48:20:262 -> 2029.00
10:48:20:273 -> 1892.00
10:48:20:283 -> 2013.00
10:48:20:293 -> 1969.00
10:48:20:304 -> 2069.00
10:48:20:314 -> 2008.00
10:48:20:324 -> 2073.00
10:48:20:334 -> 1978.00
10:48:20:345 -> 2057.00
10:48:20:386 -> 2059.00
10:48:20:397 -> 2011.00
10:48:20:420 -> 2064.00
10:48:20:420 -> 2011.00
10:48:20:427 -> 2058.00
10:48:20:438 -> 1987.00
10:48:20:448 -> 2113.00
10:48:20:458 -> 1983.00
10:48:20:469 -> 2079.00
10:48:20:479 -> 1943.00
10:48:20:489 -> 2078.00
10:48:20:500 -> 1998.00
10:48:20:510 -> 2054.00
10:48:20:535 -> 1990.00
10:48:20:536 -> 2052.00
10:48:20:540 -> 2032.00
10:48:20:551 -> 2009.00
10:48:20:561 -> 2059.00
10:48:20:571 -> 2041.00
10:48:20:582 -> 2034.00
10:48:20:592 -> 2062.00
10:48:20:602 -> 2017.00
10:48:20:612 -> 1928.00
10:48:20:623 -> 1949.00
10:48:20:633 -> 1944.00
10:48:20:643 -> 2034.00
10:48:20:653 -> 2000.00
10:48:20:664 -> 2055.00
10:48:20:675 -> 1999.00
10:48:20:684 -> 2082.00
10:48:20:695 -> 2003.00
10:48:20:705 -> 2055.00
10:48:20:715 -> 1985.00
10:48:20:725 -> 2089.00
10:48:20:736 -> 2011.00
10:48:20:746 -> 2065.00
10:48:20:756 -> 1999.00
10:48:20:767 -> 2020.00
10:48:20:778 -> 2005.00
10:48:20:787 -> 2068.00
10:48:20:797 -> 1994.00
10:48:20:808 -> 2088.00
10:48:20:818 -> 1974.00
10:48:20:828 -> 2056.00
10:48:20:839 -> 2016.00
10:48:20:849 -> 2081.00
10:48:20:859 -> 2012.00
10:48:20:870 -> 2052.00
10:48:20:880 -> 2016.00
10:48:20:890 -> 2010.00
10:48:20:901 -> 1999.00
10:48:20:911 -> 2028.00
10:48:20:922 -> 1995.00
10:48:20:932 -> 2077.00
10:48:20:942 -> 2029.00
10:48:20:952 -> 1875.00
10:48:20:962 -> 2049.00
10:48:20:973 -> 1992.00
10:48:20:983 -> 1970.00
10:48:20:993 -> 1993.00
10:48:21:003 -> 2062.00
10:48:21:013 -> 2005.00
10:48:21:024 -> 2036.00
10:48:21:035 -> 1971.00
10:48:21:051 -> 2056.00
10:48:21:055 -> 2022.00
10:48:21:065 -> 2079.00
10:48:21:076 -> 1963.00
10:48:21:086 -> 2069.00
10:48:21:096 -> 1997.00
10:48:21:106 -> 2089.00
10:48:21:117 -> 2017.00
10:48:21:127 -> 2066.00
10:48:21:137 -> 1995.00
10:48:21:148 -> 2030.00
10:48:21:158 -> 1930.00
10:48:21:168 -> 2000.00
10:48:21:179 -> 2176.00
10:48:21:189 -> 1855.00
10:48:21:200 -> 2037.00
10:48:21:210 -> 1946.00
10:48:21:220 -> 2235.00
10:48:21:230 -> 1873.00
10:48:21:242 -> 2070.00
10:48:21:251 -> 1931.00
10:48:21:261 -> 2280.00
10:48:21:272 -> 1185.00
10:48:21:282 -> 2254.00
10:48:21:292 -> 2158.00
10:48:21:303 -> 1977.00
10:48:21:313 -> 2081.00
10:48:21:323 -> 2040.00
10:48:21:359 -> 1990.00
10:48:21:362 -> 2060.00
10:48:21:362 -> 2070.00
10:48:21:365 -> 1995.00
10:48:21:375 -> 2084.00
10:48:21:385 -> 1875.00
10:48:21:396 -> 2026.00
10:48:21:406 -> 1982.00
10:48:21:416 -> 2139.00
10:48:21:427 -> 2079.00
10:48:21:437 -> 2101.00
10:48:21:447 -> 2136.00
10:48:21:462 -> 1874.00
10:48:21:468 -> 2065.00
10:48:21:478 -> 1795.00
10:48:21:488 -> 2046.00
10:48:21:499 -> 2166.00
10:48:21:509 -> 2096.00
10:48:21:519 -> 2015.00
10:48:21:530 -> 1930.00
10:48:21:540 -> 2155.00
10:48:21:570 -> 2096.00
10:48:21:571 -> 2116.00
10:48:21:572 -> 2147.00
10:48:21:581 -> 1948.00
10:48:21:597 -> 2014.00
10:48:21:605 -> 2048.00
10:48:21:613 -> 2063.00
10:48:21:622 -> 2038.00
10:48:21:633 -> 1996.00
10:48:21:644 -> 2137.00
10:48:21:654 -> 1978.00
10:48:21:664 -> 2084.00
10:48:21:675 -> 2010.00
10:48:21:684 -> 2000.00
10:48:21:695 -> 2079.00
10:48:21:705 -> 2066.00
10:48:21:715 -> 1970.00
10:48:21:726 -> 2137.00
10:48:21:736 -> 1865.00
10:48:21:746 -> 2168.00
10:48:21:756 -> 1987.00
10:48:21:767 -> 1967.00
10:48:21:777 -> 2067.00
10:48:21:787 -> 2040.00
10:48:21:798 -> 2076.00
10:48:21:808 -> 2033.00
10:48:21:818 -> 1990.00
10:48:21:828 -> 2111.00
10:48:21:839 -> 2039.00
10:48:21:849 -> 2119.00
10:48:21:859 -> 1911.00
10:48:21:870 -> 2103.00
10:48:21:880 -> 2018.00
10:48:21:890 -> 1935.00
10:48:21:900 -> 2014.00
10:48:21:911 -> 2130.00
10:48:21:921 -> 2093.00
10:48:21:931 -> 1866.00
10:48:21:942 -> 2038.00
10:48:21:952 -> 1954.00
10:48:21:962 -> 2114.00
10:48:21:972 -> 1937.00
10:48:21:985 -> 2154.00
10:48:21:993 -> 1900.00
10:48:22:003 -> 2079.00
10:48:22:014 -> 1921.00
10:48:22:024 -> 2024.00
10:48:22:034 -> 2072.00
10:48:22:044 -> 2011.00
10:48:22:055 -> 2196.00
10:48:22:065 -> 2001.00
10:48:22:094 -> 1989.00
10:48:22:095 -> 2039.00
10:48:22:096 -> 1945.00
10:48:22:107 -> 2019.00
10:48:22:117 -> 1859.00
10:48:22:127 -> 2001.00
10:48:22:137 -> 1966.00
10:48:22:148 -> 2012.00
10:48:22:158 -> 2015.00
10:48:22:168 -> 2036.00
10:48:22:179 -> 2003.00
10:48:22:189 -> 1978.00
10:48:22:199 -> 2076.00
10:48:22:209 -> 2056.00
10:48:22:220 -> 2028.00
10:48:22:230 -> 1996.00
10:48:22:241 -> 2069.00
10:48:22:251 -> 2018.00
10:48:22:274 -> 2045.00
10:48:22:274 -> 2000.00
10:48:22:282 -> 2005.00
10:48:22:292 -> 2021.00
10:48:22:302 -> 2052.00
10:48:22:313 -> 1948.00
10:48:22:323 -> 2052.00
10:48:22:333 -> 1972.00
10:48:22:343 -> 2134.00
10:48:22:354 -> 2022.00
10:48:22:364 -> 2071.00
10:48:22:374 -> 1975.00
10:48:22:385 -> 2017.00
10:48:22:395 -> 1969.00
10:48:22:405 -> 2056.00
10:48:22:416 -> 1964.00
10:48:22:426 -> 2089.00
10:48:22:436 -> 1955.00
10:48:22:447 -> 2105.00
10:48:22:458 -> 1932.00
10:48:22:467 -> 2089.00
10:48:22:478 -> 1914.00
10:48:22:488 -> 2027.00
10:48:22:498 -> 2076.00
10:48:22:509 -> 2052.00
10:48:22:519 -> 1991.00
10:48:22:529 -> 2066.00
10:48:22:539 -> 2032.00
10:48:22:550 -> 2096.00
10:48:22:560 -> 2045.00
10:48:22:570 -> 2184.00
10:48:22:580 -> 2092.00
10:48:22:591 -> 1920.00
10:48:22:622 -> 1982.00
10:48:22:623 -> 1946.00
10:48:22:623 -> 2024.00
10:48:22:632 -> 1964.00
10:48:22:642 -> 2062.00
10:48:22:653 -> 1915.00
10:48:22:663 -> 2066.00
10:48:22:673 -> 1993.00
10:48:22:684 -> 2089.00
10:48:22:694 -> 1953.00
10:48:22:704 -> 2031.00
10:48:22:714 -> 2029.00
10:48:22:725 -> 1987.00
10:48:22:735 -> 2040.00
10:48:22:745 -> 2030.00
10:48:22:756 -> 2099.00
10:48:22:766 -> 2063.00
10:48:22:776 -> 1963.00
10:48:22:786 -> 2136.00
10:48:22:799 -> 1979.00
10:48:22:814 -> 2052.00
10:48:22:820 -> 1992.00
10:48:22:830 -> 2058.00
10:48:22:840 -> 2074.00
10:48:22:851 -> 1950.00
10:48:22:861 -> 2050.00
10:48:22:871 -> 2004.00
10:48:22:882 -> 2100.00
10:48:22:892 -> 2007.00
10:48:22:902 -> 2034.00
10:48:22:912 -> 1952.00
10:48:22:922 -> 2105.00
10:48:22:933 -> 1989.00
10:48:22:943 -> 2034.00
10:48:22:954 -> 2038.00
10:48:22:964 -> 1999.00
10:48:22:974 -> 1934.00
10:48:22:984 -> 2045.00
10:48:22:995 -> 2006.00
10:48:23:005 -> 1974.00
10:48:23:015 -> 1992.00
10:48:23:026 -> 2050.00
10:48:23:036 -> 2051.00
10:48:23:046 -> 2029.00
10:48:23:057 -> 1891.00
10:48:23:067 -> 2088.00
10:48:23:077 -> 1983.00
10:48:23:109 -> 2025.00
10:48:23:111 -> 1952.00
10:48:23:111 -> 2138.00
10:48:23:119 -> 2029.00
10:48:23:141 -> 2116.00
10:48:23:141 -> 2001.00
10:48:23:153 -> 2110.00
10:48:23:160 -> 2005.00
10:48:23:170 -> 2020.00
10:48:23:180 -> 2053.00
10:48:23:191 -> 1863.00
10:48:23:201 -> 2001.00
10:48:23:212 -> 1950.00
10:48:23:222 -> 1967.00
10:48:23:232 -> 1976.00
10:48:23:243 -> 2070.00
10:48:23:253 -> 2008.00
10:48:23:263 -> 2013.00
10:48:23:274 -> 2001.00
10:48:23:284 -> 2118.00
10:48:23:294 -> 2007.00
10:48:23:304 -> 2050.00
10:48:23:315 -> 2012.00
10:48:23:326 -> 1994.00
10:48:23:335 -> 2038.00
10:48:23:346 -> 2069.00
10:48:23:356 -> 2034.00
10:48:23:366 -> 2271.00
10:48:23:376 -> 1944.00
10:48:23:387 -> 2094.00
10:48:23:397 -> 2079.00
10:48:23:407 -> 2028.00
10:48:23:418 -> 1980.00
10:48:23:428 -> 1976.00
10:48:23:438 -> 2041.00
10:48:23:448 -> 2077.00
10:48:23:461 -> 2029.00
10:48:23:469 -> 2074.00
10:48:23:479 -> 1987.00
10:48:23:490 -> 1995.00
10:48:23:500 -> 2028.00
10:48:23:510 -> 2026.00
10:48:23:523 -> 2047.00
10:48:23:531 -> 2011.00
10:48:23:541 -> 2123.00
10:48:23:552 -> 1958.00
10:48:23:562 -> 2058.00
10:48:23:572 -> 1975.00
10:48:23:583 -> 2043.00
10:48:23:593 -> 1951.00
10:48:23:603 -> 2055.00
10:48:23:614 -> 2011.00
10:48:23:624 -> 2026.00
10:48:23:638 -> 2032.00
10:48:23:660 -> 2059.00
10:48:23:662 -> 1962.00
10:48:23:665 -> 2017.00
10:48:23:675 -> 1999.00
10:48:23:686 -> 2042.00
10:48:23:696 -> 2020.00
10:48:23:706 -> 2010.00
10:48:23:717 -> 1984.00
10:48:23:727 -> 2073.00
10:48:23:739 -> 1996.00
10:48:23:748 -> 2046.00
10:48:23:758 -> 2025.00
10:48:23:768 -> 2005.00
10:48:23:779 -> 1997.00
10:48:23:789 -> 2118.00
10:48:23:799 -> 2010.00
10:48:23:810 -> 1952.00
10:48:23:820 -> 2002.00
10:48:23:830 -> 1969.00
10:48:23:841 -> 2028.00
10:48:23:851 -> 1978.00
10:48:23:862 -> 2061.00
10:48:23:872 -> 1964.00
10:48:23:882 -> 2060.00
10:48:23:893 -> 1984.00
10:48:23:903 -> 2072.00
10:48:23:913 -> 1992.00
10:48:23:923 -> 2081.00
10:48:23:933 -> 2005.00
10:48:23:944 -> 2052.00
10:48:23:954 -> 1986.00
10:48:23:964 -> 2072.00
10:48:23:975 -> 2014.00
10:48:23:985 -> 2087.00
10:48:23:995 -> 1998.00
10:48:24:006 -> 2037.00
10:48:24:016 -> 1967.00
10:48:24:027 -> 2051.00
10:48:24:037 -> 2001.00
10:48:24:047 -> 2073.00
10:48:24:057 -> 2007.00
10:48:24:068 -> 2046.00
10:48:24:078 -> 2004.00
10:48:24:088 -> 2040.00
10:48:24:099 -> 1967.00
10:48:24:109 -> 2039.00
10:48:24:119 -> 2052.00
10:48:24:146 -> 1937.00
10:48:24:146 -> 2016.00
10:48:24:150 -> 1943.00
10:48:24:181 -> 2046.00
10:48:24:182 -> 2008.00
10:48:24:182 -> 2059.00
10:48:24:191 -> 1956.00
10:48:24:201 -> 2074.00
10:48:24:217 -> 2014.00
10:48:24:222 -> 2087.00
10:48:24:232 -> 1967.00
10:48:24:242 -> 2068.00
10:48:24:253 -> 2023.00
10:48:24:263 -> 2080.00
10:48:24:273 -> 2012.00
10:48:24:284 -> 2044.00
10:48:24:293 -> 2000.00
10:48:24:304 -> 2080.00
10:48:24:314 -> 1954.00
10:48:24:324 -> 2076.00
10:48:24:335 -> 2009.00
10:48:24:345 -> 2052.00
10:48:24:355 -> 1976.00
10:48:24:366 -> 2082.00
10:48:24:376 -> 1989.00
10:48:24:386 -> 2025.00
10:48:24:397 -> 1995.00
10:48:24:407 -> 2051.00
10:48:24:417 -> 2017.00
10:48:24:429 -> 2074.00
10:48:24:440 -> 2050.00
10:48:24:450 -> 2009.00
10:48:24:460 -> 2065.00
10:48:24:471 -> 1965.00
10:48:24:481 -> 2065.00
10:48:24:491 -> 1982.00
10:48:24:502 -> 2051.00
10:48:24:512 -> 2073.00
10:48:24:523 -> 2055.00
10:48:24:533 -> 2001.00
10:48:24:543 -> 2065.00
10:48:24:554 -> 1996.00
10:48:24:564 -> 2068.00
10:48:24:574 -> 1978.00
10:48:24:584 -> 2067.00
10:48:24:595 -> 1977.00
10:48:24:605 -> 2094.00
10:48:24:615 -> 2015.00
10:48:24:626 -> 2072.00
10:48:24:636 -> 1997.00
10:48:24:646 -> 2052.00
10:48:24:657 -> 2002.00
10:48:24:667 -> 2025.00
10:48:24:697 -> 1999.00
10:48:24:698 -> 2041.00
10:48:24:698 -> 2014.00
10:48:24:708 -> 2033.00
10:48:24:718 -> 2024.00
10:48:24:729 -> 2146.00
10:48:24:739 -> 2019.00
10:48:24:749 -> 1949.00
10:48:24:759 -> 2023.00
10:48:24:770 -> 1946.00
10:48:24:780 -> 2043.00
10:48:24:790 -> 1939.00
10:48:24:801 -> 2083.00
10:48:24:811 -> 1981.00
10:48:24:821 -> 2063.00
10:48:24:831 -> 1975.00
10:48:24:842 -> 2069.00
10:48:24:852 -> 1986.00
10:48:24:862 -> 2057.00
10:48:24:873 -> 1973.00
10:48:24:883 -> 2077.00
10:48:24:893 -> 1963.00
10:48:24:904 -> 2070.00
10:48:24:914 -> 1978.00
10:48:24:924 -> 2072.00
10:48:24:935 -> 1979.00
10:48:24:945 -> 2093.00
10:48:24:955 -> 1983.00
10:48:24:966 -> 2060.00
10:48:24:976 -> 1965.00
10:48:24:987 -> 2049.00
10:48:24:997 -> 1996.00
10:48:25:007 -> 2053.00
10:48:25:017 -> 2014.00
10:48:25:028 -> 2047.00
10:48:25:038 -> 2012.00
10:48:25:048 -> 2147.00
10:48:25:060 -> 2043.00
10:48:25:069 -> 1941.00
10:48:25:079 -> 2010.00
10:48:25:090 -> 1977.00
10:48:25:100 -> 2050.00
10:48:25:110 -> 1994.00
10:48:25:120 -> 2075.00
10:48:25:131 -> 2009.00
10:48:25:141 -> 2065.00
10:48:25:154 -> 1987.00
10:48:25:162 -> 2090.00
10:48:25:172 -> 1981.00
10:48:25:182 -> 2063.00
10:48:25:193 -> 1959.00
10:48:25:221 -> 2082.00
10:48:25:222 -> 1993.00
10:48:25:223 -> 2037.00
10:48:25:234 -> 1996.00
10:48:25:244 -> 2069.00
10:48:25:254 -> 1897.00
10:48:25:269 -> 2037.00
10:48:25:298 -> 1961.00
10:48:25:298 -> 2075.00
10:48:25:299 -> 1995.00
10:48:25:306 -> 2045.00
10:48:25:316 -> 2019.00
10:48:25:326 -> 2059.00
10:48:25:337 -> 2035.00
10:48:25:347 -> 2046.00
10:48:25:357 -> 1971.00
10:48:25:367 -> 2062.00
10:48:25:378 -> 2072.00
10:48:25:388 -> 1940.00
10:48:25:398 -> 2054.00
10:48:25:409 -> 1954.00
10:48:25:419 -> 2062.00
10:48:25:429 -> 1927.00
10:48:25:439 -> 2034.00
10:48:25:450 -> 1985.00
10:48:25:460 -> 2079.00
10:48:25:470 -> 1999.00
10:48:25:480 -> 2041.00
10:48:25:492 -> 1989.00
10:48:25:501 -> 2074.00
10:48:25:511 -> 2008.00
10:48:25:521 -> 2046.00
10:48:25:535 -> 1976.00
10:48:25:542 -> 2079.00
10:48:25:552 -> 1991.00
10:48:25:562 -> 2078.00
10:48:25:573 -> 1997.00
10:48:25:583 -> 2071.00
10:48:25:593 -> 1948.00
10:48:25:605 -> 2039.00
10:48:25:614 -> 1979.00
10:48:25:628 -> 2019.00
10:48:25:635 -> 1953.00
10:48:25:645 -> 2026.00
10:48:25:655 -> 1917.00
10:48:25:665 -> 2061.00
10:48:25:676 -> 2062.00
10:48:25:686 -> 2019.00
10:48:25:700 -> 1987.00
10:48:25:707 -> 2023.00
10:48:25:717 -> 2026.00
10:48:25:748 -> 2056.00
10:48:25:752 -> 2017.00
10:48:25:752 -> 2059.00
10:48:25:758 -> 2027.00
10:48:25:768 -> 1981.00
10:48:25:779 -> 2019.00
10:48:25:790 -> 1953.00
10:48:25:799 -> 2023.00
10:48:25:811 -> 2008.00
10:48:25:820 -> 2058.00
10:48:25:830 -> 1963.00
10:48:25:840 -> 2069.00
10:48:25:851 -> 1939.00
10:48:25:861 -> 2070.00
10:48:25:871 -> 1965.00
10:48:25:886 -> 2059.00
10:48:25:892 -> 1967.00
10:48:25:903 -> 2083.00
10:48:25:913 -> 1986.00
10:48:25:923 -> 2069.00
10:48:25:933 -> 1964.00
10:48:25:944 -> 2053.00
10:48:25:954 -> 1969.00
10:48:25:964 -> 2068.00
10:48:25:979 -> 1985.00
10:48:25:985 -> 2053.00
10:48:25:995 -> 1968.00
10:48:26:006 -> 2019.00
10:48:26:016 -> 1974.00
10:48:26:026 -> 2064.00
10:48:26:036 -> 1986.00
10:48:26:047 -> 2038.00
10:48:26:057 -> 1997.00
10:48:26:067 -> 2027.00
10:48:26:082 -> 2029.00
10:48:26:088 -> 1944.00
10:48:26:099 -> 1993.00
10:48:26:109 -> 1976.00
10:48:26:119 -> 1970.00
10:48:26:130 -> 2016.00
10:48:26:140 -> 2006.00
10:48:26:169 -> 1930.00
10:48:26:169 -> 2083.00
10:48:26:171 -> 1772.00
10:48:26:181 -> 2048.00
10:48:26:191 -> 1998.00
10:48:26:202 -> 1992.00
10:48:26:213 -> 1848.00
10:48:26:222 -> 2203.00
10:48:26:232 -> 2046.00
10:48:26:242 -> 1924.00
10:48:26:271 -> 2027.00
10:48:26:272 -> 2014.00
10:48:26:274 -> 1983.00
10:48:26:284 -> 2206.00
10:48:26:294 -> 1772.00
10:48:26:305 -> 2154.00
10:48:26:318 -> 1980.00
10:48:26:326 -> 2011.00
10:48:26:336 -> 1977.00
10:48:26:346 -> 2095.00
10:48:26:362 -> 2048.00
10:48:26:370 -> 1957.00
10:48:26:377 -> 2026.00
10:48:26:387 -> 1980.00
10:48:26:397 -> 2183.00
10:48:26:408 -> 1959.00
10:48:26:418 -> 1910.00
10:48:26:428 -> 1896.00
10:48:26:438 -> 2076.00
10:48:26:449 -> 1965.00
10:48:26:459 -> 1962.00
10:48:26:470 -> 2108.00
10:48:26:490 -> 2049.00
10:48:26:500 -> 2107.00
10:48:26:480 -> 1974.00
10:48:26:511 -> 2029.00
10:48:26:521 -> 2158.00
10:48:26:531 -> 1994.00
10:48:26:542 -> 2050.00
10:48:26:552 -> 2028.00
10:48:26:562 -> 2008.00
10:48:26:573 -> 1958.00
10:48:26:583 -> 2124.00
10:48:26:593 -> 2063.00
10:48:26:603 -> 2098.00
10:48:26:614 -> 1958.00
10:48:26:624 -> 2023.00
10:48:26:634 -> 2009.00
10:48:26:644 -> 2034.00
10:48:26:655 -> 1952.00
10:48:26:665 -> 2123.00
10:48:26:676 -> 1982.00
10:48:26:686 -> 2050.00
10:48:26:696 -> 2050.00
10:48:26:706 -> 2090.00
10:48:26:717 -> 1961.00
10:48:26:727 -> 1982.00
10:48:26:737 -> 2193.00
10:48:26:747 -> 2025.00
10:48:26:758 -> 2061.00
10:48:26:768 -> 2008.00
10:48:26:797 -> 2156.00
10:48:26:798 -> 2050.00
10:48:26:799 -> 2126.00
10:48:26:809 -> 2023.00
10:48:26:819 -> 2025.00
10:48:26:831 -> 1901.00
10:48:26:840 -> 2157.00
10:48:26:850 -> 1941.00
10:48:26:861 -> 2098.00
10:48:26:871 -> 1879.00
10:48:26:881 -> 2089.00
10:48:26:891 -> 2011.00
10:48:26:902 -> 2084.00
10:48:26:912 -> 1954.00
10:48:26:923 -> 2021.00
10:48:26:933 -> 2049.00
10:48:26:943 -> 2021.00
10:48:26:954 -> 2004.00
10:48:26:964 -> 2075.00
10:48:26:974 -> 2018.00
10:48:26:985 -> 2059.00
10:48:26:995 -> 2043.00
10:48:27:005 -> 1993.00
10:48:27:016 -> 2072.00
10:48:27:026 -> 2021.00
10:48:27:036 -> 2097.00
10:48:27:047 -> 2026.00
10:48:27:057 -> 2027.00
10:48:27:067 -> 2022.00
10:48:27:077 -> 2088.00
10:48:27:088 -> 1942.00
10:48:27:098 -> 2128.00
10:48:27:108 -> 1990.00
10:48:27:119 -> 2136.00
10:48:27:129 -> 1949.00
10:48:27:140 -> 2078.00
10:48:27:150 -> 1977.00
10:48:27:160 -> 2110.00
10:48:27:171 -> 1988.00
10:48:27:181 -> 2090.00
10:48:27:191 -> 1934.00
10:48:27:207 -> 2085.00
10:48:27:234 -> 2031.00
10:48:27:234 -> 2004.00
10:48:27:234 -> 1959.00
10:48:27:243 -> 2112.00
10:48:27:253 -> 1931.00
10:48:27:263 -> 2064.00
10:48:27:275 -> 2076.00
10:48:27:284 -> 2065.00
10:48:27:294 -> 1991.00
10:48:27:325 -> 2078.00
10:48:27:326 -> 1972.00
10:48:27:326 -> 2073.00
10:48:27:335 -> 1995.00
10:48:27:345 -> 2027.00
10:48:27:356 -> 2032.00
10:48:27:366 -> 2045.00
10:48:27:377 -> 2049.00
10:48:27:387 -> 1932.00
10:48:27:397 -> 2071.00
10:48:27:408 -> 1969.00
10:48:27:418 -> 2012.00
10:48:27:428 -> 1935.00
10:48:27:438 -> 2065.00
10:48:27:451 -> 1963.00
10:48:27:459 -> 2070.00
10:48:27:469 -> 1981.00
10:48:27:480 -> 2059.00
10:48:27:490 -> 1963.00
10:48:27:500 -> 2066.00
10:48:27:511 -> 1970.00
10:48:27:521 -> 2070.00
10:48:27:531 -> 1997.00
10:48:27:542 -> 2101.00
10:48:27:552 -> 1979.00
10:48:27:562 -> 2092.00
10:48:27:573 -> 2004.00
10:48:27:583 -> 2035.00
10:48:27:596 -> 2009.00
10:48:27:604 -> 2075.00
10:48:27:614 -> 1909.00
10:48:27:624 -> 2026.00
10:48:27:635 -> 2024.00
10:48:27:645 -> 1991.00
10:48:27:655 -> 2040.00
10:48:27:665 -> 2022.00
10:48:27:676 -> 2026.00
10:48:27:686 -> 2015.00
10:48:27:696 -> 2056.00
10:48:27:707 -> 1935.00
10:48:27:717 -> 2063.00
10:48:27:727 -> 1905.00
10:48:27:737 -> 2054.00
10:48:27:750 -> 1927.00
10:48:27:758 -> 2089.00
10:48:27:768 -> 1971.00
10:48:27:779 -> 2071.00
10:48:27:795 -> 2000.00
10:48:27:799 -> 2073.00
10:48:27:809 -> 1981.00
10:48:27:820 -> 2043.00
10:48:27:840 -> 1977.00
10:48:27:841 -> 2090.00
10:48:27:851 -> 1984.00
10:48:27:866 -> 2098.00
10:48:27:871 -> 1983.00
10:48:27:881 -> 2090.00
10:48:27:892 -> 1952.00
10:48:27:902 -> 2155.00
10:48:27:913 -> 2006.00
10:48:27:923 -> 1991.00
10:48:27:933 -> 1983.00
10:48:27:944 -> 2056.00
10:48:27:954 -> 1965.00
10:48:27:964 -> 2081.00
10:48:27:975 -> 1970.00
10:48:27:985 -> 2032.00
10:48:27:995 -> 2039.00
10:48:28:006 -> 1984.00
10:48:28:016 -> 2063.00
10:48:28:027 -> 1930.00
10:48:28:041 -> 2040.00
10:48:28:047 -> 1967.00
10:48:28:057 -> 2057.00
10:48:28:067 -> 1924.00
10:48:28:078 -> 2071.00
10:48:28:088 -> 1971.00
10:48:28:099 -> 2054.00
10:48:28:109 -> 1959.00
10:48:28:119 -> 2096.00
10:48:28:129 -> 1936.00
10:48:28:140 -> 2078.00
10:48:28:150 -> 1959.00
10:48:28:164 -> 2092.00
10:48:28:171 -> 1961.00
10:48:28:181 -> 2080.00
10:48:28:191 -> 1971;00
10:48:28:201 -> 2088.00
10:48:28:240 -> 1973.00
10:48:28:241 -> 2080.00
10:48:28:241 -> 1999.00
10:48:28:242 -> 2071.00
10:48:28:254 -> 1928.00
10:48:28:263 -> 2075.00
10:48:28:273 -> 2000.00
10:48:28:284 -> 2041.00
10:48:28:294 -> 2007.00
10:48:28:304 -> 2065.00
10:48:28:314 -> 2019.00
10:48:28:330 -> 2034.00
10:48:28:335 -> 2035.00
10:48:28:360 -> 2015.00
10:48:28:361 -> 2050.00
10:48:28:366 -> 2125.00
10:48:28:376 -> 1986.00
10:48:28:386 -> 1892.00
10:48:28:397 -> 2040.00
10:48:28:407 -> 1942.00
10:48:28:417 -> 2070.00
10:48:28:428 -> 1986.00
10:48:28:438 -> 2062.00
10:48:28:448 -> 1978.00
10:48:28:459 -> 2083.00
10:48:28:469 -> 1966.00
10:48:28:483 -> 2098.00
10:48:28:490 -> 1944.00
10:48:28:500 -> 2077.00
10:48:28:510 -> 1990.00
10:48:28:521 -> 2074.00
10:48:28:531 -> 1968.00
10:48:28:541 -> 2091.00
10:48:28:552 -> 2004.00
10:48:28:562 -> 2075.00
10:48:28:572 -> 1974.00
10:48:28:582 -> 2043.00
10:48:28:593 -> 1960.00
10:48:28:603 -> 2084.00
10:48:28:614 -> 1980.00
10:48:28:624 -> 2040.00
10:48:28:634 -> 1976.00
10:48:28:644 -> 2040.00
10:48:28:655 -> 2055.00
10:48:28:665 -> 2023.00
10:48:28:675 -> 2046.00
10:48:28:685 -> 2091.00
10:48:28:696 -> 2032.00
10:48:28:706 -> 1900.00
10:48:28:717 -> 2069.00
10:48:28:727 -> 1930.00
10:48:28:737 -> 2054.00
10:48:28:748 -> 1961.00
10:48:28:758 -> 2077.00
10:48:28:768 -> 1973.00
10:48:28:778 -> 2034.00
10:48:28:789 -> 2017.00
10:48:28:799 -> 2096.00
10:48:28:810 -> 1966.00
10:48:28:820 -> 2102.00
10:48:28:830 -> 1984.00
10:48:28:840 -> 2108.00
10:48:28:851 -> 1972.00
10:48:28:876 -> 2103.00
10:48:28:890 -> 1977.00
10:48:28:891 -> 2078.00
10:48:28:892 -> 1964.00
10:48:28:902 -> 2068.00
10:48:28:913 -> 1988.00
10:48:28:923 -> 2091.00
10:48:28:933 -> 2022.00
10:48:28:965 -> 2008.00
10:48:28:966 -> 2018.00
10:48:28:966 -> 2032.00
10:48:28:974 -> 2043.00
10:48:28:985 -> 2000.00
10:48:28:995 -> 2061.00
10:48:29:005 -> 1954.00
10:48:29:016 -> 2047.00
10:48:29:048 -> 1914.00
10:48:29:049 -> 2056.00
10:48:29:049 -> 1951.00
10:48:29:056 -> 2076.00
10:48:29:067 -> 1953.00
10:48:29:077 -> 2059.00
10:48:29:092 -> 1962.00
10:48:29:098 -> 2084.00
10:48:29:108 -> 1972.00
10:48:29:118 -> 2116.00
10:48:29:128 -> 1963.00
10:48:29:139 -> 2083.00
10:48:29:150 -> 1999.00
10:48:29:160 -> 2090.00
10:48:29:170 -> 1950.00
10:48:29:180 -> 2100.00
10:48:29:191 -> 1920.00
10:48:29:201 -> 2075.00
10:48:29:211 -> 1929.00
10:48:29:222 -> 2100.00
10:48:29:232 -> 1984.00
10:48:29:242 -> 2068.00
10:48:29:252 -> 1976.00
10:48:29:263 -> 2061.00
10:48:29:273 -> 1976.00
10:48:29:283 -> 2020.00
10:48:29:294 -> 2010.00
10:48:29:304 -> 2032.00
10:48:29:314 -> 2021.00
10:48:29:325 -> 2041.00
10:48:29:335 -> 2049.00
10:48:29:345 -> 2041.00
10:48:29:359 -> 2023.00
10:48:29:365 -> 1889.00
10:48:29:391 -> 2054.00
10:48:29:392 -> 1956.00
10:48:29:396 -> 2047.00
10:48:29:407 -> 1972.00
10:48:29:417 -> 2059.00
10:48:29:427 -> 1972.00
10:48:29:437 -> 2073.00
10:48:29:448 -> 1970.00
10:48:29:458 -> 2055.00
10:48:29:468 -> 1954.00
10:48:29:478 -> 2096.00
10:48:29:489 -> 2004.00
10:48:29:499 -> 2091.00
10:48:29:509 -> 1981.00
10:48:29:520 -> 2063.00
10:48:29:530 -> 1972.00
10:48:29:540 -> 2062.00
10:48:29:551 -> 1961.00
10:48:29:561 -> 2045.00
10:48:29:571 -> 1948.00
10:48:29:581 -> 2050.00
10:48:29:592 -> 1978.00
10:48:29:602 -> 2061.00
10:48:29:612 -> 1986.00
10:48:29:623 -> 2037.00
10:48:29:633 -> 2004.00
10:48:29:643 -> 2082.00
10:48:29:654 -> 2036.00
10:48:29:664 -> 2025.00
10:48:29:675 -> 2009.00
10:48:29:685 -> 2015.00
10:48:29:695 -> 2047.00
10:48:29:705 -> 1924.00
10:48:29:716 -> 2060.00
10:48:29:728 -> 1953.00
10:48:29:736 -> 2042.00
10:48:29:747 -> 1992.00
10:48:29:757 -> 2040.00
10:48:29:767 -> 1961.00
10:48:29:778 -> 2101.00
10:48:29:788 -> 1973.00
10:48:29:798 -> 2085.00
10:48:29:809 -> 1970.00
10:48:29:819 -> 2070.00
10:48:29:829 -> 1982.00
10:48:29:840 -> 2078.00
10:48:29:850 -> 1926.00
10:48:29:860 -> 2067.00
10:48:29:871 -> 1950.00
10:48:29:881 -> 2060.00
10:48:29:906 -> 1976.00
10:48:29:907 -> 2059.00
10:48:29:912 -> 1975.00
10:48:29:922 -> 2044.00
10:48:29:933 -> 2006.00
10:48:29:943 -> 2031.00
10:48:29:953 -> 2045.00
10:48:29:964 -> 2009.00
10:48:29:974 -> 2021.00
10:48:29:984 -> 2022.00
10:48:29:994 -> 2052.00
10:48:30:004 -> 2098.00
10:48:30:015 -> 2027.00
10:48:30:025 -> 1934.00
10:48:30:035 -> 2046.00
10:48:30:046 -> 1961.00
10:48:30:056 -> 2035.00
10:48:30:066 -> 1988.00
10:48:30:077 -> 2051.00
10:48:30:087 -> 1966.00
10:48:30:097 -> 2069.00
10:48:30:109 -> 1983.00
10:48:30:134 -> 2111.00
10:48:30:134 -> 1967.00
10:48:30:138 -> 2047.00
10:48:30:154 -> 1986.00
10:48:30:159 -> 2102.00
10:48:30:169 -> 1966.00
10:48:30:180 -> 2105.00
10:48:30:190 -> 1947.00
10:48:30:200 -> 2063.00
10:48:30:210 -> 1990.00
10:48:30:220 -> 2094.00
10:48:30:231 -> 1971.00
10:48:30:241 -> 2087.00
10:48:30:251 -> 1954.00
10:48:30:262 -> 2065.00
10:48:30:272 -> 2008.00
10:48:30:282 -> 2015.00
10:48:30:293 -> 2008.00
10:48:30:303 -> 2052.00
10:48:30:313 -> 1981.00
10:48:30:324 -> 2049.00
10:48:30:334 -> 2020.00
10:48:30:344 -> 2040.00
10:48:30:354 -> 2076.00
10:48:30:364 -> 2119.00
10:48:30:375 -> 1986.00
10:48:30:385 -> 1900.00
10:48:30:395 -> 2069.00
10:48:30:406 -> 1959.00
10:48:30:426 -> 2088.00
10:48:30:427 -> 2045.00
10:48:30:437 -> 2088.00
10:48:30:447 -> 1989.00
10:48:30:457 -> 2090.00
10:48:30:468 -> 1959.00
10:48:30:478 -> 2066.00
10:48:30:488 -> 2013.00
10:48:30:499 -> 2036.00
10:48:30:509 -> 2005.00
10:48:30:519 -> 2080.00
10:48:30:533 -> 1866.00
10:48:30:540 -> 2088.00
10:48:30:550 -> 1976.00
10:48:30:560 -> 2011.00
10:48:30:571 -> 2015.00
10:48:30:583 -> 2025.00
10:48:30:596 -> 2010.00
10:48:30:609 -> 2089.00
10:48:30:612 -> 1964.00
10:48:30:622 -> 1996.00
10:48:30:632 -> 2023.00
10:48:30:642 -> 1974.00
10:48:30:653 -> 1976.00
10:48:30:664 -> 1981.00
10:48:30:673 -> 2025.00
10:48:30:684 -> 2052.00
10:48:30:694 -> 2017.00
10:48:30:704 -> 2077.00
10:48:30:714 -> 2012.00
10:48:30:724 -> 1925.00
10:48:30:735 -> 2084.00
10:48:30:745 -> 1881.00
10:48:30:755 -> 2133.00
10:48:30:766 -> 1919.00
10:48:30:776 -> 2115.00
10:48:30:786 -> 1911.00
10:48:30:796 -> 2054.00
10:48:30:807 -> 2037.00
10:48:30:817 -> 2030.00
10:48:30:827 -> 1931.00
10:48:30:837 -> 2067.00
10:48:30:848 -> 1891.00
10:48:30:863 -> 2189.00
10:48:30:868 -> 1909.00
10:48:30:879 -> 2165.00
10:48:30:889 -> 1997.00
10:48:30:899 -> 2178.00
10:48:30:910 -> 2060.00
10:48:30:920 -> 2045.00
10:48:30:945 -> 2028.00
10:48:30:946 -> 2017.00
10:48:30:951 -> 1932.00
10:48:30:961 -> 2083.00
10:48:30:971 -> 2025.00
10:48:30:982 -> 2082.00
10:48:30:992 -> 1978.00
10:48:31:009 -> 2068.00
10:48:31:034 -> 1994.00
10:48:31:034 -> 2071.00
10:48:31:035 -> 2018.00
10:48:31:045 -> 2030.00
10:48:31:054 -> 2027.00
10:48:31:064 -> 1924.00
10:48:31:075 -> 2004.00
10:48:31:085 -> 1974.00
10:48:31:096 -> 2096.00
10:48:31:106 -> 1876.00
10:48:31:116 -> 2118.00
10:48:31:126 -> 2026.00
10:48:31:137 -> 2057.00
10:48:31:147 -> 1916.00
10:48:31:157 -> 2076.00
10:48:31:169 -> 1914.00
10:48:31:178 -> 2157.00
10:48:31:188 -> 2048.00
10:48:31:199 -> 2105.00
10:48:31:209 -> 1939.00
10:48:31:219 -> 2049.00
10:48:31:230 -> 2022.00
10:48:31:240 -> 2055.00
10:48:31:250 -> 2005.00
10:48:31:260 -> 2012.00
10:48:31:271 -> 2023.00
10:48:31:281 -> 2036.00
10:48:31:291 -> 2025.00
10:48:31:301 -> 2022.00
10:48:31:312 -> 2028.00
10:48:31:322 -> 2032.00
10:48:31:333 -> 2008.00
10:48:31:345 -> 1969.00
10:48:31:353 -> 2002.00
10:48:31:364 -> 1937.00
10:48:31:374 -> 2009.00
10:48:31:384 -> 1959.00
10:48:31:394 -> 2013.00
10:48:31:404 -> 1845.00
10:48:31:415 -> 2128.00
10:48:31:425 -> 1941.00
10:48:31:435 -> 2094.00
10:48:31:461 -> 1921.00
10:48:31:463 -> 1995.00
10:48:31:466 -> 1868.00
10:48:31:480 -> 2050.00
10:48:31:487 -> 1923.00
10:48:31:497 -> 2075.00
10:48:31:508 -> 2003.00
10:48:31:518 -> 2027.00
10:48:31:529 -> 1945.00
10:48:31:539 -> 2055.00
10:48:31:549 -> 1970.00
10:48:31:560 -> 2051.00
10:48:31:570 -> 1986.00
10:48:31:580 -> 2041.00
10:48:31:590 -> 2004.00
10:48:31:601 -> 2030.00
10:48:31:611 -> 1972.00
10:48:31:621 -> 2100.00
10:48:31:632 -> 2040.00
10:48:31:642 -> 2058.00
10:48:31:652 -> 2016.00
10:48:31:663 -> 2026.00
10:48:31:673 -> 2048.00
10:48:31:683 -> 2052.00
10:48:31:693 -> 2037.00
10:48:31:704 -> 2116.00
10:48:31:714 -> 2076.00
10:48:31:724 -> 1881.00
10:48:31:735 -> 2055.00
10:48:31:745 -> 1954.00
10:48:31:775 -> 2064.00
10:48:31:775 -> 1985.00
10:48:31:776 -> 2053.00
10:48:31:786 -> 1943.00
10:48:31:797 -> 2099.00
10:48:31:807 -> 1978.00
10:48:31:817 -> 2098.00
10:48:31:828 -> 1952.00
10:48:31:838 -> 2082.00
10:48:31:848 -> 1971.00
10:48:31:858 -> 2110.00
10:48:31:869 -> 1960.00
10:48:31:879 -> 2113.00
10:48:31:889 -> 1986.00
10:48:31:899 -> 2039.00
10:48:31:910 -> 1978.00
10:48:31:920 -> 2066.00
10:48:31:935 -> 2000.00
10:48:31:941 -> 2071.00
10:48:31:951 -> 1983.00
10:48:31:979 -> 2053.00
10:48:31:980 -> 2024.00
10:48:31:982 -> 2011.00
10:48:31:992 -> 2025.00
10:48:32:003 -> 2006.00
10:48:32:016 -> 2044.00
10:48:32:041 -> 2066.00
10:48:32:041 -> 1999.00
10:48:32:044 -> 1906.00
10:48:32:054 -> 2068.00
10:48:32:064 -> 1961.00
10:48:32:075 -> 2049.00
10:48:32:085 -> 1963.00
10:48:32:096 -> 2064.00
10:48:32:106 -> 1990.00
10:48:32:116 -> 2063.00
10:48:32:126 -> 1972.00
10:48:32:137 -> 2110.00
10:48:32:147 -> 1968.00
10:48:32:158 -> 2049.00
10:48:32:168 -> 1988.00
10:48:32:179 -> 2094.00
10:48:32:188 -> 1981.00
10:48:32:198 -> 2078.00
10:48:32:209 -> 1955.00
10:48:32:220 -> 2081.00
10:48:32:229 -> 2001.00
10:48:32:240 -> 2066.00
10:48:32:250 -> 1992.00
10:48:32:260 -> 2027.00
10:48:32:271 -> 1948.00
10:48:32:281 -> 2040.00
10:48:32:291 -> 1995.00
10:48:32:302 -> 2051.00
10:48:32:312 -> 2028.00
10:48:32:323 -> 2041.00
10:48:32:333 -> 2037.00
10:48:32:343 -> 1997.00
10:48:32:353 -> 2048.00
10:48:32:364 -> 1954.00
10:48:32:374 -> 2046.00
10:48:32:385 -> 1963.00
10:48:32:395 -> 2064.00
10:48:32:405 -> 1977.00
10:48:32:415 -> 2055.00
10:48:32:426 -> 1995.00
10:48:32:436 -> 2078.00
10:48:32:446 -> 1910.00
10:48:32:457 -> 2053.00
10:48:32:467 -> 2048.00
10:48:32:477 -> 2058.00
10:48:32:505 -> 1979.00
10:48:32:506 -> 2098.00
10:48:32:508 -> 1973.00
10:48:32:538 -> 2052.00
10:48:32:539 -> 1969.00
10:48:32:539 -> 2091.00
10:48:32:549 -> 1978.00
10:48:32:559 -> 2065.00
10:48:32:570 -> 1968.00
10:48:32:580 -> 2049.00
10:48:32:590 -> 1978.00
10:48:32:600 -> 1985.00
10:48:32:611 -> 2025.00
10:48:32:621 -> 2040.00
10:48:32:631 -> 2013.00
10:48:32:641 -> 2076.00
10:48:32:652 -> 2060.00
10:48:32:662 -> 2023.00
10:48:32:673 -> 2044.00
10:48:32:684 -> 2082.00
10:48:32:693 -> 2053.00
10:48:32:704 -> 1911.00
10:48:32:714 -> 2020.00
10:48:32:724 -> 1906.00
10:48:32:734 -> 2016.00
10:48:32:745 -> 1986.00
10:48:32:755 -> 2051.00
10:48:32:766 -> 1980.00
10:48:32:776 -> 2078.00
10:48:32:786 -> 1969.00
10:48:32:797 -> 2092.00
10:48:32:807 -> 1981.00
10:48:32:819 -> 2049.00
10:48:32:828 -> 1945.00
10:48:32:838 -> 2079.00
10:48:32:848 -> 1945.00
10:48:32:859 -> 2099.00
10:48:32:869 -> 1947.00
10:48:32:879 -> 2081.00
10:48:32:890 -> 1956.00
10:48:32:900 -> 2086.00
10:48:32:910 -> 1946.00
10:48:32:921 -> 2033.00
10:48:32:931 -> 2018.00
10:48:32:941 -> 2028.00
10:48:32:951 -> 2032.00
10:48:32:962 -> 2028.00
10:48:32:972 -> 2042.00
10:48:32:983 -> 2007.00
10:48:32:993 -> 2036.00
10:48:33:003 -> 2027.00
10:48:33:025 -> 2026.00
10:48:33:026 -> 1938.00
10:48:33:034 -> 2050.00
10:48:33:044 -> 1956.00
10:48:33:054 -> 2030.00
10:48:33:065 -> 2005.00
10:48:33:075 -> 2068.00
10:48:33:086 -> 1998.00
10:48:33:096 -> 2084.00
10:48:33:106 -> 1953.00
10:48:33:117 -> 2080.00
10:48:33:149 -> 1953.00
10:48:33:150 -> 2094.00
10:48:33:150 -> 1962.00
10:48:33:158 -> 2094.00
10:48:33:168 -> 1982.00
10:48:33:179 -> 2106.00
10:48:33:189 -> 1973.00
10:48:33:199 -> 2060.00
10:48:33:210 -> 1953.00
10:48:33:220 -> 2070.00
10:48:33:230 -> 1983.00
10:48:33:240 -> 2025.00
10:48:33:251 -> 2005.00
10:48:33:261 -> 2039.00
10:48:33:271 -> 2026.00
10:48:33:282 -> 2060.00
10:48:33:292 -> 2001.00
10:48:33:302 -> 2027.00
10:48:33:313 -> 2030.00
10:48:33:323 -> 1920.00
10:48:33:333 -> 2036.00
10:48:33:346 -> 1955.00
10:48:33:354 -> 2020.00
10:48:33:364 -> 1998.00
10:48:33:375 -> 2064.00
10:48:33:385 -> 1973.00
10:48:33:395 -> 2071.00
10:48:33:406 -> 1971.00
10:48:33:416 -> 2028.00
10:48:33:426 -> 1939.00
10:48:33:437 -> 2113.00
10:48:33:447 -> 1963.00
10:48:33:457 -> 2079.00
10:48:33:467 -> 1976.00
10:48:33:478 -> 2099.00
10:48:33:488 -> 1945.00
10:48:33:498 -> 2127.00
10:48:33:509 -> 1936.00
10:48:33:519 -> 2100.00
10:48:33:547 -> 1973.00
10:48:33:547 -> 2047.00
10:48:33:550 -> 2000.00
10:48:33:560 -> 2058.00
10:48:33:571 -> 2023.00
10:48:33:581 -> 2049.00
10:48:33:591 -> 2029.00
10:48:33:601 -> 2033.00
10:48:33:612 -> 2059.00
10:48:33:622 -> 2001.00
10:48:33:632 -> 2067.00
10:48:33:642 -> 1955.00
10:48:33:653 -> 2033.00
10:48:33:663 -> 1956.00
10:48:33:674 -> 2008.00
10:48:33:684 -> 2010.00
10:48:33:694 -> 2050.00
10:48:33:705 -> 2002.00
10:48:33:715 -> 2081.00
10:48:33:725 -> 1977.00
10:48:33:735 -> 2093.00
10:48:33:747 -> 1990.00
10:48:33:756 -> 2053.00
10:48:33:766 -> 1969.00
10:48:33:778 -> 2073.00
10:48:33:787 -> 1956.00
10:48:33:797 -> 2132.00
10:48:33:808 -> 1979.00
10:48:33:818 -> 2078.00
10:48:33:828 -> 1993.00
10:48:33:839 -> 2080.00
10:48:33:849 -> 1950.00
10:48:33:859 -> 2067.00
10:48:33:869 -> 1984.00
10:48:33:880 -> 2074.00
10:48:33:890 -> 2022.00
10:48:33:901 -> 2019.00
10:48:33:911 -> 2047.00
10:48:33:921 -> 2026.00
10:48:33:931 -> 2041.00
10:48:33:942 -> 2031.00
10:48:33:952 -> 2044.00
10:48:33:962 -> 2113.00
10:48:33:972 -> 2083.00
10:48:33:983 -> 1917.00
10:48:33:993 -> 2064.00
10:48:34:004 -> 1974.00
10:48:34:014 -> 2078.00
10:48:34:025 -> 1975.00
10:48:34:035 -> 2067.00
10:48:34:045 -> 1978.00
10:48:34:068 -> 2072.00
10:48:34:068 -> 1888.00
10:48:34:077 -> 2073.00
10:48:34:095 -> 1964.00
10:48:34:119 -> 2067.00
10:48:34:119 -> 1992.00
10:48:34:119 -> 2093.00
10:48:34:129 -> 1941.00
10:48:34:139 -> 2073.00
10:48:34:150 -> 1970.00
10:48:34:160 -> 2043.00
10:48:34:170 -> 2029.00
10:48:34:180 -> 2045.00
10:48:34:191 -> 2027.00
10:48:34:201 -> 2023.00
10:48:34:211 -> 2082.00
10:48:34:222 -> 1878.00
10:48:34:232 -> 2061.00
10:48:34:242 -> 1938.00
10:48:34:253 -> 1998.00
10:48:34:263 -> 1978.00
10:48:34:274 -> 2048.00
10:48:34:284 -> 1910.00
10:48:34:294 -> 2050.00
10:48:34:304 -> 1966.00
10:48:34:315 -> 2097.00
10:48:34:328 -> 1957.00
10:48:34:335 -> 2103.00
10:48:34:345 -> 1997.00
10:48:34:356 -> 2078.00
10:48:34:366 -> 1952.00
10:48:34:376 -> 2106.00
10:48:34:387 -> 1955.00
10:48:34:397 -> 2094.00
10:48:34:407 -> 1963.00
10:48:34:417 -> 2093.00
10:48:34:428 -> 1975.00
10:48:34:438 -> 2103.00
10:48:34:448 -> 2016.00
10:48:34:458 -> 2084.00
10:48:34:469 -> 1949.00
10:48:34:479 -> 2071.00
10:48:34:490 -> 1870.00
10:48:34:500 -> 2132.00
10:48:34:516 -> 2201.00
10:48:34:521 -> 1891.00
10:48:34:531 -> 1939.00
10:48:34:541 -> 1988.00
10:48:34:551 -> 2079.00
10:48:34:562 -> 2095.00
10:48:34:587 -> 1969.00
10:48:34:590 -> 1911.00
10:48:34:592 -> 2101.00
10:48:34:603 -> 2028.00
10:48:34:614 -> 1995.00
10:48:34:623 -> 2156.00
10:48:34:634 -> 1956.00
10:48:34:644 -> 2158.00
10:48:34:654 -> 1877.00
10:48:34:664 -> 1769.00
10:48:34:675 -> 2135.00
10:48:34:685 -> 1896.00
10:48:34:696 -> 2146.00
10:48:34:706 -> 1915.00
10:48:34:716 -> 2066.00
10:48:34:726 -> 2118.00
10:48:34:737 -> 2012.00
10:48:34:747 -> 2013.00
10:48:34:763 -> 2082.00
10:48:34:768 -> 2035.00
10:48:34:778 -> 2157.00
10:48:34:789 -> 1936.00
10:48:34:799 -> 2118.00
10:48:34:809 -> 1881.00
10:48:34:820 -> 2057.00
10:48:34:830 -> 2073.00
10:48:34:840 -> 2077.00
10:48:34:851 -> 2081.00
10:48:34:861 -> 2116.00
10:48:34:871 -> 2193.00
10:48:34:881 -> 2071.00
10:48:34:892 -> 2142.00
10:48:34:902 -> 1923.00
10:48:34:912 -> 2066.00
10:48:34:923 -> 1926.00
10:48:34:933 -> 2010.00
10:48:34:944 -> 1969.00
10:48:34:954 -> 2070.00
10:48:34:964 -> 1972.00
10:48:34:974 -> 2141.00
10:48:34:987 -> 1964.00
10:48:34:995 -> 2077.00
10:48:35:005 -> 1996.00
10:48:35:016 -> 2103.00
10:48:35:026 -> 1907.00
10:48:35:036 -> 2099.00
10:48:35:047 -> 1974.00
10:48:35:079 -> 2043.00
10:48:35:080 -> 2028.00
10:48:35:080 -> 2024.00
10:48:35:110 -> 1991.00
10:48:35:110 -> 1961.00
10:48:35:110 -> 1985.00
10:48:35:119 -> 2048.00
10:48:35:130 -> 1937.00
10:48:35:140 -> 1989.00
10:48:35:152 -> 1991.00
10:48:35:160 -> 1960.00
10:48:35:170 -> 2049.00
10:48:35:181 -> 1998.00
10:48:35:191 -> 2054.00
10:48:35:202 -> 1883.00
10:48:35:212 -> 2111.00
10:48:35:222 -> 1794.00
10:48:35:232 -> 2122.00
10:48:35:253 -> 2094.00
10:48:35:263 -> 1985.00
10:48:35:243 -> 1943.00
10:48:35:273 -> 2117.00
10:48:35:288 -> 2040.00
10:48:35:294 -> 2135.00
10:48:35:304 -> 1884.00
10:48:35:314 -> 2026.00
10:48:35:325 -> 1992.00
10:48:35:335 -> 2122.00
10:48:35:346 -> 1888.00
10:48:35:356 -> 2107.00
10:48:35:366 -> 1948.00
10:48:35:378 -> 2093.00
10:48:35:387 -> 1971.00
10:48:35:397 -> 2039.00
10:48:35:407 -> 2011.00
10:48:35:418 -> 2082.00
10:48:35:428 -> 1958.00
10:48:35:438 -> 2048.00
10:48:35:449 -> 2010.00
10:48:35:459 -> 2025.00
10:48:35:470 -> 2041.00
10:48:35:480 -> 2019.00
10:48:35:490 -> 2012.00
10:48:35:500 -> 2026.00
10:48:35:513 -> 2066.00
10:48:35:521 -> 2104.00
10:48:35:532 -> 2074.00
10:48:35:541 -> 1933.00
10:48:35:552 -> 2082.00
10:48:35:562 -> 1994.00
10:48:35:572 -> 2065.00
10:48:35:583 -> 1997.00
10:48:35:594 -> 2067.00
10:48:35:603 -> 1963.00
10:48:35:631 -> 2069.00
10:48:35:631 -> 1958.00
10:48:35:634 -> 2008.00
10:48:35:645 -> 1947.00
10:48:35:655 -> 2096.00
10:48:35:666 -> 1974.00
10:48:35:676 -> 2070.00
10:48:35:686 -> 1999.00
10:48:35:702 -> 2089.00
10:48:35:712 -> 2056.00
10:48:35:722 -> 1946.00
10:48:35:733 -> 2031.00
10:48:35:743 -> 1965.00
10:48:35:753 -> 2106.00
10:48:35:763 -> 1949.00
10:48:35:774 -> 2050.00
10:48:35:784 -> 1990.00
10:48:35:794 -> 2103.00
10:48:35:804 -> 1961.00
10:48:35:815 -> 2084.00
10:48:35:825 -> 1955.00
10:48:35:835 -> 2118.00
10:48:35:845 -> 1958.00
10:48:35:856 -> 2103.00
10:48:35:866 -> 1993.00
10:48:35:876 -> 2051.00
10:48:35:887 -> 1937.00
10:48:35:897 -> 2070.00
10:48:35:907 -> 1994.00
10:48:35:937 -> 2081.00
10:48:35:938 -> 1940.00
10:48:35:938 -> 2058.00
10:48:35:948 -> 1993.00
10:48:35:959 -> 2068.00
10:48:35:969 -> 2006.00
10:48:35:979 -> 2040.00
10:48:35:990 -> 2033.00
10:48:36:000 -> 2022.00
10:48:36:013 -> 2053.00
10:48:36:021 -> 2033.00
10:48:36:031 -> 2042.00
10:48:36:041 -> 1940.00
10:48:36:052 -> 2040.00
10:48:36:062 -> 1959.00
10:48:36:072 -> 2077.00
10:48:36:083 -> 1982.00
10:48:36:093 -> 2098.00
10:48:36:103 -> 1967.00
10:48:36:114 -> 2071.00
10:48:36:124 -> 1987.00
10:48:36:148 -> 2115.00
10:48:36:149 -> 1993.00
10:48:36:155 -> 2071.00
10:48:36:165 -> 1962.00
10:48:36:176 -> 2088.00
10:48:36:187 -> 1962.00
10:48:36:197 -> 2079.00
10:48:36:207 -> 1963.00
10:48:36:217 -> 2078.00
10:48:36:228 -> 1986.00
10:48:36:239 -> 2064.00
10:48:36:248 -> 2026.00
10:48:36:259 -> 2079.00
10:48:36:269 -> 2016.00
10:48:36:279 -> 2030.00
10:48:36:290 -> 2027.00
10:48:36:300 -> 2012.00
10:48:36:311 -> 2045.00
10:48:36:321 -> 1923.00
10:48:36:331 -> 2043.00
10:48:36:342 -> 1918.00
10:48:36:352 -> 2049.00
10:48:36:362 -> 2001.00
10:48:36:372 -> 2055.00
10:48:36:383 -> 1956.00
10:48:36:393 -> 2072.00
10:48:36:403 -> 1943.00
10:48:36:413 -> 2065.00
10:48:36:424 -> 1977.00
10:48:36:434 -> 2107.00
10:48:36:444 -> 1972.00
10:48:36:455 -> 2117.00
10:48:36:465 -> 1956.00
10:48:36:475 -> 2109.00
10:48:36:486 -> 1961.00
10:48:36:496 -> 2083.00
10:48:36:506 -> 1970.00
10:48:36:517 -> 2086.00
10:48:36:527 -> 1929.00
10:48:36:537 -> 2043.00
10:48:36:548 -> 1978.00
10:48:36:558 -> 2067.00
10:48:36:568 -> 1979.00
10:48:36:578 -> 2051.00
10:48:36:589 -> 2023.00
10:48:36:599 -> 2014.00
10:48:36:609 -> 2021.00
10:48:36:620 -> 2045.00
10:48:36:630 -> 2043.00
10:48:36:640 -> 2101.00
10:48:36:665 -> 2055.00
10:48:36:666 -> 1923.00
10:48:36:671 -> 2049.00
10:48:36:682 -> 1965.00
10:48:36:692 -> 2068.00
10:48:36:702 -> 1970.00
10:48:36:713 -> 2077.00
10:48:36:723 -> 1952.00
10:48:36:734 -> 2081.00
10:48:36:744 -> 1977.00
10:48:36:754 -> 2045.00
10:48:36:764 -> 2007.00
10:48:36:775 -> 2074.00
10:48:36:786 -> 2011.00
10:48:36:796 -> 2094.00
10:48:36:806 -> 1974.00
10:48:36:816 -> 2073.00
10:48:36:827 -> 1976.00
10:48:36:837 -> 2090.00
10:48:36:870 -> 1959.00
10:48:36:870 -> 2054.00
10:48:36:870 -> 1996.00
10:48:36:878 -> 2043.00
10:48:36:888 -> 1988.00
10:48:36:899 -> 2039.00
10:48:36:909 -> 2005.00
10:48:36:919 -> 2032.00
10:48:36:930 -> 2068.00
10:48:36:945 -> 2132.00
10:48:36:950 -> 2022.00
10:48:36:960 -> 1925.00
10:48:36:971 -> 2059.00
10:48:36:981 -> 1957.00
10:48:36:992 -> 2053.00
10:48:37:002 -> 1986.00
10:48:37:012 -> 2100.00
10:48:37:023 -> 1955.00
10:48:37:034 -> 2089.00
10:48:37:043 -> 1958.00
10:48:37:053 -> 2090.00
10:48:37:065 -> 1986.00
10:48:37:074 -> 2074.00
10:48:37:084 -> 1941.00
10:48:37:095 -> 2099.00
10:48:37:106 -> 1985.00
10:48:37:116 -> 2087.00
10:48:37:126 -> 1948.00
10:48:37:136 -> 2077.00
10:48:37:147 -> 1983.00
10:48:37:157 -> 2019.00
10:48:37:185 -> 1991.00
10:48:37:185 -> 2060.00
10:48:37:188 -> 2011.00
10:48:37:198 -> 2046.00
10:48:37:208 -> 2020.00
10:48:37:219 -> 2058.00
10:48:37:229 -> 2027.00
10:48:37:239 -> 2046.00
10:48:37:250 -> 2057.00
10:48:37:261 -> 1940.00
10:48:37:270 -> 2010.00
10:48:37:281 -> 2000.00
10:48:37:296 -> 2077.00
10:48:37:301 -> 1968.00
10:48:37:312 -> 2092.00
10:48:37:322 -> 1929.00
10:48:37:333 -> 2055.00
10:48:37:343 -> 1971.00
10:48:37:353 -> 2034.00
10:48:37:363 -> 1972.00
10:48:37:374 -> 2085.00
10:48:37:386 -> 1978.00
10:48:37:395 -> 2092.00
10:48:37:405 -> 1945.00
10:48:37:415 -> 2089.00
10:48:37:425 -> 1968.00
10:48:37:436 -> 2069.00
10:48:37:446 -> 1980.00
10:48:37:456 -> 2086.00
10:48:37:467 -> 1979.00
10:48:37:477 -> 2082.00
10:48:37:487 -> 1986.00
10:48:37:497 -> 2073.00
10:48:37:508 -> 2010.00
10:48:37:518 -> 2045.00
10:48:37:530 -> 2021.00
10:48:37:539 -> 2033.00
10:48:37:549 -> 2029.00
10:48:37:559 -> 2015.00
10:48:37:570 -> 2028.00
10:48:37:580 -> 1940.00
10:48:37:590 -> 2051.00
10:48:37:600 -> 1949.00
10:48:37:611 -> 2033.00
10:48:37:621 -> 1985.00
10:48:37:631 -> 2059.00
10:48:37:642 -> 1936.00
10:48:37:652 -> 2074.00
10:48:37:666 -> 1957.00
10:48:37:673 -> 2093.00
10:48:37:683 -> 1989.00
10:48:37:716 -> 2075.00
10:48:37:716 -> 1981.00
10:48:37:716 -> 2092.00
10:48:37:729 -> 1973.00
10:48:37:734 -> 2073.00
10:48:37:763 -> 1938.00
10:48:37:763 -> 2084.00
10:48:37:765 -> 1966.00
10:48:37:776 -> 2053.00
10:48:37:786 -> 2002.00
10:48:37:796 -> 2098.00
10:48:37:807 -> 1955.00
10:48:37:817 -> 2069.00
10:48:37:827 -> 1986.00
10:48:37:838 -> 2034.00
10:48:37:848 -> 2015.00
10:48:37:858 -> 2018.00
10:48:37:869 -> 2055.00
10:48:37:879 -> 2024.00
10:48:37:889 -> 2051.00
10:48:37:899 -> 1953.00
10:48:37:910 -> 2035.00
10:48:37:920 -> 1938.00
10:48:37:930 -> 2043.00
10:48:37:941 -> 1911.00
10:48:37:951 -> 2044.00
10:48:37:961 -> 2005.00
10:48:37:972 -> 2133.00
10:48:37:982 -> 1949.00
10:48:37:992 -> 2058.00
10:48:38:003 -> 2052.00
10:48:38:018 -> 2078.00
10:48:38:023 -> 1850.00
10:48:38:034 -> 2063.00
10:48:38:044 -> 2048.00
10:48:38:054 -> 2130.00
10:48:38:064 -> 2004.00
10:48:38:075 -> 2189.00
10:48:38:085 -> 1994.00
10:48:38:095 -> 2014.00
10:48:38:105 -> 1985.00
10:48:38:116 -> 2041.00
10:48:38:126 -> 2027.00
10:48:38:136 -> 2038.00
10:48:38:147 -> 1909.00
10:48:38:157 -> 1992.00
10:48:38:167 -> 2015.00
10:48:38:178 -> 1973.00
10:48:38:188 -> 2039.00
10:48:38:198 -> 2063.00
10:48:38:209 -> 1995.00
10:48:38:236 -> 2015.00
10:48:38:239 -> 2095.00
10:48:38:240 -> 1961.00
10:48:38:250 -> 2083.00
10:48:38:260 -> 2016.00
10:48:38:270 -> 1979.00
10:48:38:281 -> 1983.00
10:48:38:291 -> 2074.00
10:48:38:301 -> 2012.00
10:48:38:312 -> 1970.00
10:48:38:322 -> 2022.00
10:48:38:333 -> 1989.00
10:48:38:359 -> 2054.00
10:48:38:360 -> 2028.00
10:48:38:363 -> 2004.00
10:48:38:374 -> 2095.00
10:48:38:384 -> 1978.00
10:48:38:394 -> 2180.00
10:48:38:404 -> 1986.00
10:48:38:415 -> 2042.00
10:48:38:425 -> 2049.00
10:48:38:435 -> 2049.00
10:48:38:446 -> 2073.00
10:48:38:456 -> 2013.00
10:48:38:471 -> 2004.00
10:48:38:476 -> 2082.00
10:48:38:487 -> 1980.00
10:48:38:497 -> 1921.00
10:48:38:507 -> 2065.00
10:48:38:518 -> 1974.00
10:48:38:528 -> 2053.00
10:48:38:538 -> 1951.00
10:48:38:549 -> 2053.00
10:48:38:559 -> 1882.00
10:48:38:570 -> 2102.00
10:48:38:580 -> 1976.00
10:48:38:590 -> 2001.00
10:48:38:602 -> 2087.00
10:48:38:629 -> 2131.00
10:48:38:630 -> 1850.00
10:48:38:631 -> 2134.00
10:48:38:642 -> 1928.00
10:48:38:652 -> 2054.00
10:48:38:663 -> 2067.00
10:48:38:673 -> 2029.00
10:48:38:683 -> 2075.00
10:48:38:693 -> 2153.00
10:48:38:704 -> 2074.00
10:48:38:714 -> 2199.00
10:48:38:724 -> 1908.00
10:48:38:735 -> 2087.00
10:48:38:764 -> 2000.00
10:48:38:765 -> 2017.00
10:48:38:765 -> 1974.00
10:48:38:776 -> 1974.00
10:48:38:787 -> 1998.00
10:48:38:797 -> 1991.00
10:48:38:807 -> 2110.00
10:48:38:817 -> 2029.00
10:48:38:828 -> 2067.00
10:48:38:838 -> 2022.00
10:48:38:848 -> 2096.00
10:48:38:858 -> 2183.00
10:48:38:869 -> 2023.00
10:48:38:879 -> 1949.00
10:48:38:889 -> 1999.00
10:48:38:900 -> 1855.00
10:48:38:910 -> 2066.00
10:48:38:920 -> 1934.00
10:48:38:930 -> 1979.00
10:48:38:941 -> 1944.00
10:48:38:951 -> 2093.00
10:48:38:962 -> 1894.00
10:48:38:972 -> 2043.00
10:48:38:986 -> 2007.00
10:48:38:993 -> 2082.00
10:48:39:003 -> 2002.00
10:48:39:013 -> 2099.00
10:48:39:024 -> 1954.00
10:48:39:034 -> 2079.00
10:48:39:044 -> 1965.00
10:48:39:055 -> 2038.00
10:48:39:065 -> 1949.00
10:48:39:075 -> 2021.00
10:48:39:085 -> 1961.00
10:48:39:096 -> 2070.00
10:48:39:108 -> 2015.00
10:48:39:117 -> 2025.00
10:48:39:127 -> 1959.00
10:48:39:137 -> 2016.00
10:48:39:147 -> 2019.00
10:48:39:158 -> 2045.00
10:48:39:168 -> 2038.00
10:48:39:178 -> 2033.00
10:48:39:189 -> 2053.00
10:48:39:199 -> 1939.00
10:48:39:209 -> 2038.00
10:48:39:220 -> 1938.00
10:48:39:230 -> 2088.00
10:48:39:240 -> 1978.00
10:48:39:254 -> 2079.00
10:48:39:261 -> 1933.00
10:48:39:289 -> 2091.00
10:48:39:290 -> 1927.00
10:48:39:292 -> 2096.00
10:48:39:302 -> 1988.00
10:48:39:312 -> 2118.00
10:48:39:323 -> 1955.00
10:48:39:333 -> 2079.00
10:48:39:343 -> 1953.00
10:48:39:353 -> 2086.00
10:48:39:364 -> 1986.00
10:48:39:374 -> 2052.00
10:48:39:384 -> 1987.00
10:48:39:395 -> 2057.00
10:48:39:405 -> 2001.00
10:48:39:415 -> 2062.00
10:48:39:428 -> 1980.00
10:48:39:436 -> 2054.00
10:48:39:446 -> 1983.00
10:48:39:457 -> 2036.00
10:48:39:467 -> 2023.00
10:48:39:477 -> 2001.00
10:48:39:488 -> 2059.00
10:48:39:498 -> 2073.00
10:48:39:508 -> 2023.00
10:48:39:519 -> 1896.00
10:48:39:547 -> 2064.00
10:48:39:547 -> 1954.00
10:48:39:550 -> 2065.00
10:48:39:560 -> 1983.00
10:48:39:570 -> 2059.00
10:48:39:580 -> 1944.00
10:48:39:591 -> 2091.00
10:48:39:601 -> 1956.00
10:48:39:611 -> 2052.00
10:48:39:621 -> 2011.00
10:48:39:632 -> 2100.00
10:48:39:642 -> 2006.00
10:48:39:652 -> 2117.00
10:48:39:663 -> 1998.00
10:48:39:673 -> 2073.00
10:48:39:684 -> 1974.00
10:48:39:694 -> 2080.00
10:48:39:704 -> 1992.00
10:48:39:714 -> 2083.00
10:48:39:725 -> 1932.00
10:48:39:735 -> 2084.00
10:48:39:745 -> 1967.00
10:48:39:755 -> 2039.00
10:48:39:766 -> 1952.00
10:48:39:776 -> 2028.00
10:48:39:808 -> 2004.00
10:48:39:808 -> 2058.00
10:48:39:808 -> 2035.00
10:48:39:817 -> 1988.00
10:48:39:828 -> 2014.00
10:48:39:838 -> 2031.00
10:48:39:848 -> 2037.00
10:48:39:859 -> 1927.00
10:48:39:869 -> 2060.00
10:48:39:879 -> 1977.00
10:48:39:889 -> 2020.00
10:48:39:900 -> 1985.00
10:48:39:910 -> 2078.00
10:48:39:920 -> 1984.00
10:48:39:931 -> 2070.00
10:48:39:941 -> 1937.00
10:48:39:951 -> 2100.00
10:48:39:961 -> 1988.00
10:48:39:972 -> 2104.00
10:48:39:982 -> 1981.00
10:48:39:992 -> 2099.00
10:48:40:003 -> 1984.00
10:48:40:013 -> 2045.00
10:48:40:023 -> 1959.00
10:48:40:034 -> 2075.00
10:48:40:044 -> 1975.00
10:48:40:054 -> 2072.00
10:48:40:066 -> 1964.00
10:48:40:075 -> 2069.00
10:48:40:085 -> 1986.00
10:48:40:095 -> 2060.00
10:48:40:106 -> 2010.00
10:48:40:116 -> 2028.00
10:48:40:127 -> 2027.00
10:48:40:137 -> 2028.00
10:48:40:147 -> 2029.00
10:48:40:158 -> 2063.00
10:48:40:168 -> 2039.00
10:48:40:178 -> 1943.00
10:48:40:188 -> 2063.00
10:48:40:199 -> 1992.00
10:48:40:209 -> 2068.00
10:48:40:220 -> 2025.00
10:48:40:230 -> 2075.00
10:48:40:240 -> 1963.00
10:48:40:251 -> 2054.00
10:48:40:261 -> 1958.00
10:48:40:271 -> 2049.00
10:48:40:282 -> 1976.00
10:48:40:292 -> 2080.00
10:48:40:302 -> 1979.00
10:48:40:332 -> 2089.00
10:48:40:332 -> 1959.00
10:48:40:333 -> 2071.00
10:48:40:344 -> 1959.00
10:48:40:354 -> 2085.00
10:48:40:386 -> 1993.00
10:48:40:386 -> 2038.00
10:48:40:386 -> 1970.00
10:48:40:395 -> 2055.00
10:48:40:406 -> 2001.00
10:48:40:416 -> 2028.00
10:48:40:426 -> 2000.00
10:48:40:437 -> 2051.00
10:48:40:447 -> 2042.00
10:48:40:457 -> 2155.00
10:48:40:470 -> 2042.00
10:48:40:478 -> 1936.00
10:48:40:488 -> 2029.00
10:48:40:499 -> 1983.00
10:48:40:509 -> 2081.00
10:48:40:519 -> 1966.00
10:48:40:529 -> 2054.00
10:48:40:540 -> 1926.00
10:48:40:550 -> 2078.00
10:48:40:560 -> 1973.00
10:48:40:571 -> 2077.00
10:48:40:581 -> 1976.00
10:48:40:591 -> 2088.00
10:48:40:602 -> 1961.00
10:48:40:612 -> 2090.00
10:48:40:625 -> 1955.00
10:48:40:633 -> 2106.00
10:48:40:643 -> 1955.00
10:48:40:653 -> 2062.00
10:48:40:664 -> 1971.00
10:48:40:674 -> 2078.00
10:48:40:684 -> 1953.00
10:48:40:695 -> 2076.00
10:48:40:705 -> 2002.00
10:48:40:715 -> 2049.00
10:48:40:726 -> 1946.00
10:48:40:736 -> 2041.00
10:48:40:746 -> 2029.00
10:48:40:757 -> 2013.00
10:48:40:767 -> 2041.00
10:48:40:777 -> 1926.00
10:48:40:788 -> 2033.00
10:48:40:798 -> 1954.00
10:48:40:808 -> 2062.00
10:48:40:818 -> 1948.00
10:48:40:829 -> 2103.00
10:48:40:852 -> 1963.00
10:48:40:854 -> 2059.00
10:48:40:860 -> 1976.00
10:48:40:870 -> 2102.00
10:48:40:881 -> 1973.00
10:48:40:891 -> 2079.00
10:48:40:901 -> 1946.00
10:48:40:912 -> 2105.00
10:48:40:922 -> 1942.00
10:48:40:932 -> 2050.00
10:48:40:946 -> 1976.00
10:48:40:953 -> 2095.00
10:48:40:964 -> 1970.00
10:48:40:974 -> 2056.00
10:48:40:984 -> 1972.00
10:48:40:995 -> 2076.00
10:48:41:005 -> 2012.00
10:48:41:015 -> 2029.00
10:48:41:026 -> 2015.00
10:48:41:036 -> 2028.00
10:48:41:046 -> 2048.00
10:48:41:057 -> 2049.00
10:48:41:067 -> 2048.00
10:48:41:078 -> 1945.00
10:48:41:088 -> 2027.00
10:48:41:098 -> 1943.00
10:48:41:108 -> 2045.00
10:48:41:119 -> 1984.00
10:48:41:129 -> 2073.00
10:48:41:140 -> 1977.00
10:48:41:150 -> 2023.00
10:48:41:160 -> 1935.00
10:48:41:170 -> 2106.00
10:48:41:181 -> 1941.00
10:48:41:212 -> 2097.00
10:48:41:212 -> 1943.00
10:48:41:212 -> 2089.00
10:48:41:223 -> 1944.00
10:48:41:233 -> 2073.00
10:48:41:244 -> 1964.00
10:48:41:254 -> 2086.00
10:48:41:264 -> 1906.00
10:48:41:275 -> 2057.00
10:48:41:285 -> 1999.00
10:48:41:295 -> 2036.00
10:48:41:306 -> 2025.00
10:48:41:316 -> 2059.00
10:48:41:326 -> 2019.00
10:48:41:337 -> 2010.00
10:48:41:347 -> 2040.00
10:48:41:371 -> 1951.00
10:48:41:372 -> 2044.00
10:48:41:378 -> 1980.00
10:48:41:388 -> 2061.00
10:48:41:399 -> 2017.00
10:48:41:409 -> 2084.00
10:48:41:419 -> 1958.00
10:48:41:430 -> 2070.00
10:48:41:440 -> 1982.00
10:48:41:450 -> 2079.00
10:48:41:461 -> 1986.00
10:48:41:471 -> 2088.00
10:48:41:481 -> 1945.00
10:48:41:492 -> 2076.00
10:48:41:502 -> 1944.00
10:48:41:512 -> 2077.00
10:48:41:523 -> 1932.00
10:48:41:533 -> 2021.00
10:48:41:543 -> 1934.00
10:48:41:553 -> 2134.00
10:48:41:564 -> 1998.00
10:48:41:574 -> 2048.00
10:48:41:585 -> 1980.00
10:48:41:595 -> 2111.00
10:48:41:605 -> 1913.00
10:48:41:615 -> 2066.00
10:48:41:626 -> 2037.00
10:48:41:636 -> 1845.00
10:48:41:647 -> 2217.00
10:48:41:657 -> 1899.00
10:48:41:667 -> 2130.00
10:48:41:677 -> 1978.00
10:48:41:687 -> 1995.00
10:48:41:698 -> 1988.00
10:48:41:708 -> 1985.00
10:48:41:719 -> 2073.00
10:48:41:729 -> 2140.00
10:48:41:739 -> 1880.00
10:48:41:750 -> 2107.00
10:48:41:760 -> 2237.00
10:48:41:770 -> 2392.00
10:48:41:780 -> 1911.00
10:48:41:791 -> 2015.00
10:48:41:801 -> 2009.00
10:48:41:811 -> 1979.00
10:48:41:822 -> 2048.00
10:48:41:832 -> 2120.00
10:48:41:842 -> 1950.00
10:48:41:853 -> 2040.00
10:48:41:863 -> 2014.00
10:48:41:894 -> 2096.00
10:48:41:895 -> 1842.00
10:48:41:895 -> 2158.00
10:48:41:904 -> 1986.00
10:48:41:914 -> 2078.00
10:48:41:925 -> 2048.00
10:48:41:935 -> 2127.00
10:48:41:945 -> 2107.00
10:48:41:955 -> 1773.00
10:48:41:966 -> 2051.00
10:48:41:976 -> 2147.00
10:48:41:986 -> 1907.00
10:48:41:997 -> 1925.00
10:48:42:007 -> 1981.00
10:48:42:017 -> 2102.00
10:48:42:028 -> 2056.00
10:48:42:038 -> 1977.00
10:48:42:048 -> 2183.00
10:48:42:058 -> 1923.00
10:48:42:090 -> 2101.00
10:48:42:091 -> 1892.00
10:48:42:091 -> 2128.00
10:48:42:100 -> 1963.00
10:48:42:110 -> 2079.00
10:48:42:120 -> 2011.00
10:48:42:131 -> 2087.00
10:48:42:141 -> 1908.00
10:48:42:151 -> 1963.00
10:48:42:162 -> 1944.00
10:48:42:172 -> 2022.00
10:48:42:182 -> 2021.00
10:48:42:194 -> 2022.00
10:48:42:203 -> 2156.00
10:48:42:214 -> 2086.00
10:48:42:224 -> 1977.00
10:48:42:234 -> 2019.00
10:48:42:244 -> 1989.00
10:48:42:255 -> 1911.00
10:48:42:265 -> 2055.00
10:48:42:275 -> 2074.00
10:48:42:286 -> 2108.00
10:48:42:296 -> 2001.00
10:48:42:306 -> 2018.00
10:48:42:317 -> 1951.00
10:48:42:327 -> 1977.00
10:48:42:338 -> 1869.00
10:48:42:348 -> 2191.00
10:48:42:358 -> 2020.00
10:48:42:370 -> 2037.00
10:48:42:379 -> 2057.00
10:48:42:389 -> 2104.00
10:48:42:415 -> 2024.00
10:48:42:416 -> 2028.00
10:48:42:420 -> 1947.00
10:48:42:430 -> 2008.00
10:48:42:441 -> 2032.00
10:48:42:451 -> 2129.00
10:48:42:462 -> 1967.00
10:48:42:472 -> 2020.00
10:48:42:482 -> 1990.00
10:48:42:492 -> 2143.00
10:48:42:503 -> 1981.00
10:48:42:513 -> 2063.00
10:48:42:527 -> 1958.00
10:48:42:534 -> 2058.00
10:48:42:544 -> 1996.00
10:48:42:554 -> 2033.00
10:48:42:564 -> 2094.00
10:48:42:575 -> 2073.00
10:48:42:585 -> 1986.00
10:48:42:595 -> 2082.00
10:48:42:606 -> 2177.00
10:48:42:616 -> 1889.00
10:48:42:626 -> 1922.00
10:48:42:637 -> 2010.00
10:48:42:647 -> 2077.00
10:48:42:657 -> 1981.00
10:48:42:668 -> 2003.00
10:48:42:682 -> 1936.00
10:48:42:688 -> 2112.00
10:48:42:699 -> 2004.00
10:48:42:709 -> 2094.00
10:48:42:719 -> 2037.00
10:48:42:730 -> 2088.00
10:48:42:740 -> 1908.00
10:48:42:750 -> 2046.00
10:48:42:761 -> 1991.00
10:48:42:771 -> 2143.00
10:48:42:781 -> 1949.00
10:48:42:792 -> 2054.00
10:48:42:804 -> 1997.00
10:48:42:812 -> 2126.00
10:48:42:823 -> 1915.00
10:48:42:833 -> 2090.00
10:48:42:843 -> 1965.00
10:48:42:854 -> 2057.00
10:48:42:864 -> 2035.00
10:48:42:874 -> 2076.00
10:48:42:885 -> 2016.00
10:48:42:895 -> 2037.00
10:48:42:905 -> 2059.00
10:48:42:933 -> 1997.00
10:48:42:935 -> 2043.00
10:48:42:936 -> 1883.00
10:48:42:970 -> 1984.00
10:48:42:970 -> 1960.00
10:48:42:970 -> 2010.00
10:48:42:978 -> 1935.00
10:48:42:987 -> 2027.00
10:48:42:998 -> 1971.00
10:48:43:008 -> 2048.00
10:48:43:018 -> 1943.00
10:48:43:029 -> 2091.00
10:48:43:039 -> 1980.00
10:48:43:049 -> 2078.00
10:48:43:060 -> 1971.00
10:48:43:070 -> 2057.00
10:48:43:080 -> 1967.00
10:48:43:091 -> 2089.00
10:48:43:101 -> 1979.00
10:48:43:111 -> 2082.00
10:48:43:122 -> 1978.00
10:48:43:132 -> 2053.00
10:48:43:142 -> 1980.00
10:48:43:153 -> 2066.00
10:48:43:163 -> 1981.00
10:48:43:173 -> 2056.00
10:48:43:184 -> 2005.00
10:48:43:194 -> 2072.00
10:48:43:204 -> 2024.00
10:48:43:215 -> 2033.00
10:48:43:225 -> 2023.00
10:48:43:235 -> 2105.00
10:48:43:245 -> 2041.00
10:48:43:259 -> 1910.00
10:48:43:266 -> 2033.00
10:48:43:276 -> 1983.00
10:48:43:287 -> 2073.00
10:48:43:297 -> 1948.00
10:48:43:307 -> 2072.00
10:48:43:318 -> 1967.00
10:48:43:328 -> 2070.00
10:48:43:338 -> 1972.00
10:48:43:349 -> 2049.00
10:48:43:359 -> 1984.00
10:48:43:369 -> 2071.00
10:48:43:380 -> 1991.00
10:48:43:390 -> 2097.00
10:48:43:400 -> 1960.00
10:48:43:411 -> 2102.00
10:48:43:421 -> 2001.00
10:48:43:431 -> 2113.00
10:48:43:454 -> 1970.00
10:48:43:454 -> 2093.00
10:48:43:462 -> 1939.00
10:48:43:472 -> 2061.00
10:48:43:483 -> 1970.00
10:48:43:493 -> 2031.00
10:48:43:503 -> 2019.00
10:48:43:514 -> 2038.00
10:48:43:524 -> 2034.00
10:48:43:534 -> 2018.00
10:48:43:545 -> 2025.00
10:48:43:555 -> 1992.00
10:48:43:565 -> 1996.00
10:48:43:576 -> 1933.00
10:48:43:586 -> 2016.00
10:48:43:596 -> 1994.00
10:48:43:607 -> 2014.00
10:48:43:617 -> 1973.00
10:48:43:627 -> 2090.00
10:48:43:638 -> 1965.00
10:48:43:648 -> 2088.00
10:48:43:658 -> 1970.00
10:48:43:668 -> 2093.00
10:48:43:679 -> 1966.00
10:48:43:689 -> 2112.00
10:48:43:699 -> 1983.00
10:48:43:710 -> 2084.00
10:48:43:720 -> 1929.00
10:48:43:731 -> 2054.00
10:48:43:741 -> 1961.00
10:48:43:751 -> 2088.00
10:48:43:761 -> 1933.00
10:48:43:772 -> 2091.00
10:48:43:782 -> 1966.00
10:48:43:793 -> 2065.00
10:48:43:803 -> 2013.00
10:48:43:813 -> 2020.00
10:48:43:823 -> 2010.00
10:48:43:834 -> 2027.00
10:48:43:865 -> 2032.00
10:48:43:865 -> 1955.00
10:48:43:865 -> 2044.00
10:48:43:875 -> 1925.00
10:48:43:885 -> 2017.00
10:48:43:895 -> 1964.00
10:48:43:906 -> 2042.00
10:48:43:916 -> 1997.00
10:48:43:927 -> 2061.00
10:48:43:937 -> 1972.00
10:48:43:948 -> 2058.00
10:48:43:970 -> 1979.00
10:48:43:972 -> 2048.00
10:48:43:981 -> 1987.00
10:48:43:989 -> 2084.00
10:48:43:999 -> 1957.00
10:48:44:009 -> 2100.00
10:48:44:019 -> 1964.00
10:48:44:030 -> 2045.00
10:48:44:040 -> 1976.00
10:48:44:050 -> 2055.00
10:48:44:061 -> 1956.00
10:48:44:071 -> 2090.00
10:48:44:081 -> 1981.00
10:48:44:092 -> 2074.00
10:48:44:102 -> 1973.00
10:48:44:112 -> 2062.00
10:48:44:123 -> 1974.00
10:48:44:133 -> 2056.00
10:48:44:143 -> 2022.00
10:48:44:154 -> 2049.00
10:48:44:165 -> 2047.00
10:48:44:174 -> 2003.00
10:48:44:185 -> 2030.00
10:48:44:195 -> 1961.00
10:48:44:206 -> 2001.00
10:48:44:216 -> 1962.00
10:48:44:226 -> 2056.00
10:48:44:237 -> 1989.00
10:48:44:247 -> 2091.00
10:48:44:257 -> 1969.00
10:48:44:268 -> 2100.00
10:48:44:278 -> 1982.00
10:48:44:289 -> 2067.00
10:48:44:298 -> 1957.00
10:48:44:309 -> 2103.00
10:48:44:319 -> 1957.00
10:48:44:330 -> 2060.00
10:48:44:340 -> 1975.00
10:48:44:350 -> 2013.00
10:48:44:361 -> 1973.00
10:48:44:371 -> 2079.00
10:48:44:381 -> 1928.00
10:48:44:392 -> 2087.00
10:48:44:402 -> 1968.00
10:48:44:412 -> 2078.00
10:48:44:423 -> 2003.00
10:48:44:433 -> 2057.00
10:48:44:443 -> 2061.00
10:48:44:457 -> 1949.00
10:48:44:464 -> 2031.00
10:48:44:490 -> 1986.00
10:48:44:491 -> 2035.00
10:48:44:495 -> 1944.00
10:48:44:505 -> 2068.00
10:48:44:516 -> 2011.00
10:48:44:526 -> 2060.00
10:48:44:536 -> 2001.00
10:48:44:547 -> 1992.00
10:48:44:557 -> 1993.00
10:48:44:567 -> 2062.00
10:48:44:581 -> 1995.00
10:48:44:588 -> 2081.00
10:48:44:598 -> 1977.00
10:48:44:609 -> 2061.00
10:48:44:619 -> 1976.00
10:48:44:629 -> 2060.00
10:48:44:640 -> 1977.00
10:48:44:668 -> 2069.00
10:48:44:668 -> 2053.00
10:48:44:671 -> 2041.00
10:48:44:681 -> 1962.00
10:48:44:691 -> 2069.00
10:48:44:702 -> 2026.00
10:48:44:712 -> 2043.00
10:48:44:722 -> 1989.00
10:48:44:733 -> 2087.00
10:48:44:743 -> 2022.00
10:48:44:753 -> 2034.00
10:48:44:764 -> 2119.00
10:48:44:774 -> 2027.00
10:48:44:784 -> 2048.00
10:48:44:794 -> 1963.00
10:48:44:805 -> 1970.00
10:48:44:815 -> 2140.00
10:48:44:825 -> 1977.00
10:48:44:836 -> 2038.00
10:48:44:846 -> 2020.00
10:48:44:856 -> 1876.00
10:48:44:867 -> 2066.00
10:48:44:881 -> 1844.00
10:48:44:887 -> 2171.00
10:48:44:897 -> 2025.00
10:48:44:908 -> 2091.00
10:48:44:918 -> 1988.00
10:48:44:928 -> 2034.00
10:48:44:939 -> 1863.00
10:48:44:949 -> 2109.00
10:48:44:959 -> 1981.00
10:48:44:970 -> 2086.00
10:48:44:981 -> 1952.00
10:48:45:008 -> 2168.00
10:48:45:009 -> 1947.00
10:48:45:011 -> 2075.00
10:48:45:021 -> 2022.00
10:48:45:031 -> 2069.00
10:48:45:042 -> 1987.00
10:48:45:052 -> 2016.00
10:48:45:062 -> 1923.00
10:48:45:073 -> 1970.00
10:48:45:083 -> 1996.00
10:48:45:093 -> 1996.00
10:48:45:103 -> 1926.00
10:48:45:114 -> 2058.00
10:48:45:124 -> 2028.00
10:48:45:134 -> 1876.00
10:48:45:145 -> 2103.00
10:48:45:155 -> 2002.00
10:48:45:165 -> 2161.00
10:48:45:176 -> 1946.00
10:48:45:186 -> 2090.00
10:48:45:196 -> 1954.00
10:48:45:207 -> 2091.00
10:48:45:217 -> 1991.00
10:48:45:227 -> 2016.00
10:48:45:237 -> 1908.00
10:48:45:248 -> 2146.00
10:48:45:258 -> 1864.00
10:48:45:268 -> 2079.00
10:48:45:279 -> 1861.00
10:48:45:289 -> 1964.00
10:48:45:299 -> 2037.00
10:48:45:310 -> 2090.00
10:48:45:320 -> 1988.00
10:48:45:330 -> 2105.00
10:48:45:341 -> 2068.00
10:48:45:354 -> 2181.00
10:48:45:361 -> 2039.00
10:48:45:372 -> 2113.00
10:48:45:382 -> 2120.00
10:48:45:392 -> 1930.00
10:48:45:403 -> 1999.00
10:48:45:413 -> 2104.00
10:48:45:423 -> 2117.00
10:48:45:433 -> 1959.00
10:48:45:444 -> 2106.00
10:48:45:454 -> 1985.00
10:48:45:464 -> 2060.00
10:48:45:475 -> 2022.00
10:48:45:485 -> 2083.00
10:48:45:500 -> 1975.00
10:48:45:506 -> 1961.00
10:48:45:528 -> 1997.00
10:48:45:529 -> 2198.00
10:48:45:537 -> 1908.00
10:48:45:547 -> 2106.00
10:48:45:557 -> 1994.00
10:48:45:568 -> 2048.00
10:48:45:578 -> 1887.00
10:48:45:589 -> 2139.00
10:48:45:599 -> 1946.00
10:48:45:609 -> 1983.00
10:48:45:619 -> 2101.00
10:48:45:630 -> 1976.00
10:48:45:643 -> 2084.00
10:48:45:650 -> 2019.00
10:48:45:661 -> 1995.00
10:48:45:671 -> 2061.00
10:48:45:681 -> 1943.00
10:48:45:691 -> 2047.00
10:48:45:702 -> 2030.00
10:48:45:743 -> 1985.00
10:48:45:743 -> 2046.00
10:48:45:743 -> 1989.00
10:48:45:744 -> 2033.00
10:48:45:755 -> 2034.00
10:48:45:765 -> 2051.00
10:48:45:775 -> 1960.00
10:48:45:786 -> 2036.00
10:48:45:796 -> 1993.00
10:48:45:806 -> 1951.00
10:48:45:817 -> 1950.00
10:48:45:827 -> 2085.00
10:48:45:837 -> 1971.00
10:48:45:848 -> 2108.00
10:48:45:858 -> 1929.00
10:48:45:868 -> 2085.00
10:48:45:879 -> 2002.00
10:48:45:889 -> 2093.00
10:48:45:899 -> 2005.00
10:48:45:909 -> 2035.00
10:48:45:920 -> 2007.00
10:48:45:930 -> 2102.00
10:48:45:940 -> 1943.00
10:48:45:951 -> 2027.00
10:48:45:961 -> 2000.00
10:48:45:971 -> 2077.00
10:48:45:982 -> 1999.00
10:48:45:992 -> 2019.00
10:48:46:002 -> 2047.00
10:48:46:013 -> 2092.00
10:48:46:023 -> 1998.00
10:48:46:044 -> 1916.00
10:48:46:046 -> 2071.00
10:48:46:054 -> 1964.00
10:48:46:064 -> 2064.00
10:48:46:075 -> 1958.00
10:48:46:085 -> 2094.00
10:48:46:095 -> 1954.00
10:48:46:106 -> 2106.00
10:48:46:116 -> 1938.00
10:48:46:126 -> 2114.00
10:48:46:136 -> 1971.00
10:48:46:147 -> 2043.00
10:48:46:157 -> 1949.00
10:48:46:167 -> 2095.00
10:48:46:178 -> 1991.00
10:48:46:188 -> 2091.00
10:48:46:198 -> 1960.00
10:48:46:209 -> 2043.00
10:48:46:219 -> 1953.00
10:48:46:229 -> 2069.00
10:48:46:240 -> 1969.00
10:48:46:250 -> 2009.00
10:48:46:260 -> 2007.00
10:48:46:271 -> 2056.00
10:48:46:281 -> 2031.00
10:48:46:291 -> 2000.00
10:48:46:302 -> 2047.00
10:48:46:312 -> 2050.00
10:48:46:322 -> 2046.00
10:48:46:332 -> 1989.00
10:48:46:343 -> 2016.00
10:48:46:353 -> 1936.00
10:48:46:363 -> 2058.00
10:48:46:374 -> 1972.00
10:48:46:384 -> 2089.00
10:48:46:394 -> 1992.00
10:48:46:405 -> 2093.00
10:48:46:415 -> 1957.00
10:48:46:425 -> 2072.00
10:48:46:436 -> 1980.00
10:48:46:448 -> 2101.00
10:48:46:456 -> 1971.00
10:48:46:467 -> 2090.00
10:48:46:477 -> 1982.00
10:48:46:487 -> 2092.00
10:48:46:497 -> 1947.00
10:48:46:507 -> 2129.00
10:48:46:518 -> 1993.00
10:48:46:528 -> 2100.00
10:48:46:539 -> 1948.00
10:48:46:564 -> 2114.00
10:48:46:565 -> 1949.00
10:48:46:569 -> 2092.00
10:48:46:580 -> 1968.00
10:48:46:590 -> 2083.00
10:48:46:600 -> 2004.00
10:48:46:611 -> 2045.00
10:48:46:621 -> 2016.00
10:48:46:631 -> 2057.00
10:48:46:642 -> 2009.00
10:48:46:652 -> 1953.00
10:48:46:662 -> 2069.00
10:48:46:673 -> 1911.00
10:48:46:683 -> 2051.00
10:48:46:698 -> 1979.00
10:48:46:731 -> 2083.00
10:48:46:732 -> 1959.00
10:48:46:732 -> 2105.00
10:48:46:734 -> 1982.00
10:48:46:745 -> 2086.00
10:48:46:755 -> 1955.00
10:48:46:765 -> 2097.00
10:48:46:776 -> 1985.00
10:48:46:786 -> 2082.00
10:48:46:796 -> 1985.00
10:48:46:807 -> 2056.00
10:48:46:818 -> 1953.00
10:48:46:827 -> 2098.00
10:48:46:838 -> 1972.00
10:48:46:848 -> 2060.00
10:48:46:858 -> 1973.00
10:48:46:869 -> 2054.00
10:48:46:879 -> 1989.00
10:48:46:889 -> 2063.00
10:48:46:900 -> 1997.00
10:48:46:910 -> 2049.00
10:48:46:921 -> 2002.00
10:48:46:931 -> 2004.00
10:48:46:941 -> 2037.00
10:48:46:952 -> 2030.00
10:48:46:962 -> 2050.00
10:48:46:972 -> 1918.00
10:48:46:983 -> 2057.00
10:48:46:993 -> 1959.00
10:48:47:003 -> 2051.00
10:48:47:014 -> 1981.00
10:48:47:024 -> 2079.00
10:48:47:035 -> 1979.00
10:48:47:045 -> 2059.00
10:48:47:055 -> 1980.00
10:48:47:085 -> 2098.00
10:48:47:087 -> 1971.00
10:48:47:088 -> 2063.00
10:48:47:097 -> 1964.00
10:48:47:107 -> 2087.00
10:48:47:117 -> 1952.00
10:48:47:128 -> 2079.00
10:48:47:138 -> 1971.00
10:48:47:148 -> 2045.00
10:48:47:159 -> 1949.00
10:48:47:169 -> 2118.00
10:48:47:179 -> 1938.00
10:48:47:190 -> 2081.00
10:48:47:200 -> 2007.00
10:48:47:211 -> 2025.00
10:48:47:221 -> 2016.00
10:48:47:231 -> 2034.00
10:48:47:241 -> 2041.00
10:48:47:251 -> 2128.00
10:48:47:262 -> 2080.00
10:48:47:272 -> 1918.00
10:48:47:283 -> 1984.00
10:48:47:293 -> 1997.00
10:48:47:303 -> 2068.00
10:48:47:314 -> 1975.00
10:48:47:324 -> 2060.00
10:48:47:334 -> 1964.00
10:48:47:345 -> 2066.00
10:48:47:355 -> 1996.00
10:48:47:365 -> 2083.00
10:48:47:376 -> 1994.00
10:48:47:386 -> 2097.00
10:48:47:396 -> 1938.00
10:48:47:407 -> 2047.00
10:48:47:417 -> 1960.00
10:48:47:427 -> 2044.00
10:48:47:439 -> 1968.00
10:48:47:448 -> 2088.00
10:48:47:458 -> 1959.00
10:48:47:469 -> 2071.00
10:48:47:479 -> 2022.00
10:48:47:489 -> 2013.00
10:48:47:500 -> 1979.00
10:48:47:510 -> 2002.00
10:48:47:520 -> 2013.00
10:48:47:531 -> 1989.00
10:48:47:541 -> 2035.00
10:48:47:574 -> 1988.00
10:48:47:575 -> 2040.00
10:48:47:575 -> 1896.00
10:48:47:582 -> 2036.00
10:48:47:614 -> 1933.00
10:48:47:615 -> 2096.00
10:48:47:615 -> 1967.00
10:48:47:623 -> 1994.00
10:48:47:633 -> 2061.00
10:48:47:644 -> 2171.00
10:48:47:654 -> 2030.00
10:48:47:665 -> 2171.00
10:48:47:675 -> 2046.00
10:48:47:685 -> 2034.00
10:48:47:696 -> 2014.00
10:48:47:706 -> 2146.00
10:48:47:716 -> 1886.00
10:48:47:727 -> 2120.00
10:48:47:737 -> 1903.00
10:48:47:747 -> 1986.00
10:48:47:758 -> 1996.00
10:48:47:768 -> 2097.00
10:48:47:778 -> 1906.00
10:48:47:789 -> 2133.00
10:48:47:799 -> 1907.00
10:48:47:809 -> 1976.00
10:48:47:820 -> 1999.00
10:48:47:834 -> 2044.00
10:48:47:840 -> 2032.00
10:48:47:851 -> 1956.00
10:48:47:861 -> 1922.00
10:48:47:871 -> 2011.00
10:48:47:882 -> 2005.00
10:48:47:892 -> 2039.00
10:48:47:902 -> 1899.00
10:48:47:913 -> 2077.00
10:48:47:923 -> 2017.00
10:48:47:933 -> 1998.00
10:48:47:944 -> 2071.00
10:48:47:954 -> 2018.00
10:48:47:964 -> 2030.00
10:48:47:975 -> 1981.00
10:48:47:985 -> 2162.00
10:48:47:996 -> 1988.00
10:48:48:006 -> 2194.00
10:48:48:016 -> 1913.00
10:48:48:027 -> 2076.00
10:48:48:037 -> 1966.00
10:48:48:047 -> 2184.00
10:48:48:057 -> 2033.00
10:48:48:068 -> 2067.00
10:48:48:078 -> 2005.00
10:48:48:088 -> 2072.00
10:48:48:099 -> 1940.00
10:48:48:110 -> 2093.00
10:48:48:136 -> 2035.00
10:48:48:137 -> 2018.00
10:48:48:140 -> 1958.00
10:48:48:150 -> 2060.00
10:48:48:161 -> 2012.00
10:48:48:171 -> 2060.00
10:48:48:181 -> 2044.00
10:48:48:194 -> 1831.00
10:48:48:205 -> 2160.00
10:48:48:215 -> 1923.00
10:48:48:225 -> 2049.00
10:48:48:235 -> 1859.00
10:48:48:246 -> 2156.00
10:48:48:256 -> 2013.00
10:48:48:271 -> 2048.00
10:48:48:277 -> 2014.00
10:48:48:287 -> 2075.00
10:48:48:297 -> 2165.00
10:48:48:308 -> 1999.00
10:48:48:318 -> 2024.00
10:48:48:328 -> 2010.00
10:48:48:339 -> 1953.00
10:48:48:349 -> 2055.00
10:48:48:359 -> 1955.00
10:48:48:370 -> 2080.00
10:48:48:380 -> 1963.00
10:48:48:390 -> 2068.00
10:48:48:400 -> 2095.00
10:48:48:411 -> 1913.00
10:48:48:421 -> 2055.00
10:48:48:431 -> 1977.00
10:48:48:442 -> 2082.00
10:48:48:452 -> 2045.00
10:48:48:462 -> 2047.00
10:48:48:473 -> 1994.00
10:48:48:483 -> 2080.00
10:48:48:493 -> 1977.00
10:48:48:504 -> 2077.00
10:48:48:514 -> 1992.00
10:48:48:524 -> 2079.00
10:48:48:535 -> 1945.00
10:48:48:545 -> 2148.00
10:48:48:556 -> 1910.00
10:48:48:566 -> 2165.00
10:48:48:576 -> 1893.00
10:48:48:587 -> 2097.00
10:48:48:597 -> 1947.00
10:48:48:607 -> 2110.00
10:48:48:617 -> 1973.00
10:48:48:628 -> 2059.00
10:48:48:654 -> 1964.00
10:48:48:655 -> 2136.00
10:48:48:659 -> 1931.00
10:48:48:669 -> 2069.00
10:48:48:706 -> 2024.00
10:48:48:707 -> 2013.00
10:48:48:707 -> 1952.00
10:48:48:710 -> 1989.00
10:48:48:720 -> 2014.00
10:48:48:731 -> 1921.00
10:48:48:741 -> 1987.00
10:48:48:751 -> 1938.00
10:48:48:762 -> 2026.00
10:48:48:773 -> 2007.00
10:48:48:782 -> 2032.00
10:48:48:793 -> 1972.00
10:48:48:803 -> 2075.00
10:48:48:814 -> 1976.00
10:48:48:824 -> 2099.00
10:48:48:834 -> 1940.00
10:48:48:845 -> 2045.00
10:48:48:855 -> 1961.00
10:48:48:865 -> 2060.00
10:48:48:876 -> 1961.00
10:48:48:886 -> 2050.00
10:48:48:896 -> 1933.00
10:48:48:907 -> 2096.00
10:48:48:917 -> 1978.00
10:48:48:927 -> 2049.00
10:48:48:937 -> 1977.00
10:48:48:948 -> 2072.00
10:48:48:958 -> 2007.00
10:48:48:969 -> 2068.00
10:48:48:979 -> 2026.00
10:48:48:989 -> 2008.00
10:48:49:000 -> 2006.00
10:48:49:010 -> 2043.00
10:48:49:020 -> 2050.00
10:48:49:031 -> 1918.00
10:48:49:041 -> 2030.00
10:48:49:051 -> 2006.00
10:48:49:061 -> 2058.00
10:48:49:072 -> 1958.00
10:48:49:085 -> 2082.00
10:48:49:092 -> 1975.00
10:48:49:103 -> 2020.00
10:48:49:113 -> 1931.00
10:48:49:123 -> 2114.00
10:48:49:134 -> 1977.00
10:48:49:144 -> 2086.00
10:48:49:172 -> 1927.00
10:48:49:173 -> 2110.00
10:48:49:175 -> 1944.00
10:48:49:185 -> 2147.00
10:48:49:195 -> 1947.00
10:48:49:206 -> 2093.00
10:48:49:216 -> 1919.00
10:48:49:226 -> 2116.00
10:48:49:238 -> 1967.00
10:48:49:249 -> 2046.00
10:48:49:259 -> 2021.00
10:48:49:269 -> 2065.00
10:48:49:279 -> 2059.00
10:48:49:290 -> 2068.00
10:48:49:300 -> 2038.00
10:48:49:310 -> 1900.00
10:48:49:321 -> 2047.00
10:48:49:331 -> 1971.00
10:48:49:342 -> 2055.00
10:48:49:352 -> 1994.00
10:48:49:362 -> 2077.00
10:48:49:373 -> 1947.00
10:48:49:383 -> 2116.00
10:48:49:393 -> 1996.00
10:48:49:404 -> 2085.00
10:48:49:414 -> 1982.00
10:48:49:424 -> 2066.00
10:48:49:435 -> 1942.00
10:48:49:447 -> 2080.00
10:48:49:455 -> 1964.00
10:48:49:466 -> 2074.00
10:48:49:476 -> 1997.00
10:48:49:486 -> 2043.00
10:48:49:497 -> 1975.00
10:48:49:507 -> 2059.00
10:48:49:517 -> 1911.00
10:48:49:528 -> 2060.00
10:48:49:538 -> 1983.00
10:48:49:548 -> 2070.00
10:48:49:559 -> 2005.00
10:48:49:586 -> 2034.00
10:48:49:586 -> 2072.00
10:48:49:589 -> 1941.00
10:48:49:600 -> 2005.00
10:48:49:610 -> 1933.00
10:48:49:620 -> 2067.00
10:48:49:631 -> 1934.00
10:48:49:641 -> 2036.00
10:48:49:651 -> 2046.00
10:48:49:662 -> 2078.00
10:48:49:688 -> 1998.00
10:48:49:690 -> 2083.00
10:48:49:693 -> 1956.00
10:48:49:703 -> 2093.00
10:48:49:713 -> 1983.00
10:48:49:724 -> 2089.00
10:48:49:734 -> 1975.00
10:48:49:744 -> 2092.00
10:48:49:755 -> 1984.00
10:48:49:765 -> 2085.00
10:48:49:775 -> 1949.00
10:48:49:785 -> 2088.00
10:48:49:796 -> 1971.00
10:48:49:806 -> 2091.00
10:48:49:816 -> 1975.00
10:48:49:827 -> 2063.00
10:48:49:837 -> 1948.00
10:48:49:847 -> 2051.00
10:48:49:858 -> 1965.00
10:48:49:868 -> 2034.00
10:48:49:878 -> 2038.00
10:48:49:888 -> 2035.00
10:48:49:899 -> 2037.00
10:48:49:909 -> 2061.00
10:48:49:920 -> 2032.00
10:48:49:930 -> 1937.00
10:48:49:940 -> 2050.00
10:48:49:950 -> 1948.00
10:48:49:961 -> 2048.00
10:48:49:971 -> 1968.00
10:48:49:981 -> 2063.00
10:48:49:992 -> 1980.00
10:48:50:002 -> 2043.00
10:48:50:012 -> 1964.00
10:48:50:023 -> 2080.00
10:48:50:033 -> 1938.00
10:48:50:044 -> 2083.00
10:48:50:054 -> 1995.00
10:48:50:064 -> 2090.00
10:48:50:074 -> 1956.00
10:48:50:086 -> 2086.00
10:48:50:095 -> 1974.00
10:48:50:105 -> 2072.00
10:48:50:115 -> 1997.00
10:48:50:126 -> 2074.00
10:48:50:137 -> 1987.00
10:48:50:147 -> 2032.00
10:48:50:157 -> 2030.00
10:48:50:167 -> 2053.00
10:48:50:179 -> 2018.00
10:48:50:204 -> 2047.00
10:48:50:207 -> 2017.00
10:48:50:209 -> 2021.00
10:48:50:219 -> 2050.00
10:48:50:230 -> 1914.00
10:48:50:240 -> 2032.00
10:48:50:251 -> 1992.00
10:48:50:261 -> 2041.00
10:48:50:271 -> 1974.00
10:48:50:281 -> 2072.00
10:48:50:294 -> 1934.00
10:48:50:302 -> 2094.00
10:48:50:313 -> 1973.00
10:48:50:323 -> 2075.00
10:48:50:333 -> 1966.00
10:48:50:344 -> 2062.00
10:48:50:354 -> 1982.00
10:48:50:364 -> 2075.00
10:48:50:374 -> 1934.00
10:48:50:385 -> 2069.00
10:48:50:413 -> 1989.00
10:48:50:413 -> 2114.00
10:48:50:416 -> 1970.00
10:48:50:426 -> 2068.00
10:48:50:436 -> 1975.00
10:48:50:446 -> 2081.00
10:48:50:459 -> 2013.00
10:48:50:467 -> 2051.00
10:48:50:477 -> 1981.00
10:48:50:488 -> 1975.00
10:48:50:498 -> 2016.00
10:48:50:508 -> 2039.00
10:48:50:519 -> 2017.00
10:48:50:529 -> 1992.00
10:48:50:539 -> 2031.00
10:48:50:550 -> 1953.00
10:48:50:560 -> 2045.00
10:48:50:570 -> 1977.00
10:48:50:581 -> 2060.00
10:48:50:591 -> 2002.00
10:48:50:601 -> 2089.00
10:48:50:612 -> 1978.00
10:48:50:622 -> 2058.00
10:48:50:632 -> 1957.00
10:48:50:643 -> 2087.00
10:48:50:656 -> 1960.00
10:48:50:663 -> 2064.00
10:48:50:673 -> 1972.00
10:48:50:684 -> 2096.00
10:48:50:694 -> 1978.00
10:48:50:725 -> 2104.00
10:48:50:727 -> 1973.00
10:48:50:727 -> 2045.00
10:48:50:736 -> 1971.00
10:48:50:746 -> 2054.00
10:48:50:756 -> 1973.00
10:48:50:767 -> 2045.00
10:48:50:777 -> 2026.00
10:48:50:787 -> 2005.00
10:48:50:798 -> 2034.00
10:48:50:810 -> 2020.00
10:48:50:818 -> 2005.00
10:48:50:829 -> 1969.00
10:48:50:839 -> 2012.00
10:48:50:849 -> 1924.00
10:48:50:860 -> 2082.00
10:48:50:870 -> 1970.00
10:48:50:881 -> 2093.00
10:48:50:891 -> 1966.00
10:48:50:902 -> 2113.00
10:48:50:912 -> 1927.00
10:48:50:922 -> 2140.00
10:48:50:933 -> 2002.00
10:48:50:943 -> 2138.00
10:48:50:953 -> 1978.00
10:48:50:964 -> 2095.00
10:48:50:974 -> 1994.00
10:48:50:984 -> 2108.00
10:48:50:995 -> 1991.00
10:48:51:005 -> 2114.00
10:48:51:015 -> 1910.00
10:48:51:026 -> 2039.00
10:48:51:036 -> 1946.00
10:48:51:046 -> 2056.00
10:48:51:057 -> 2103.00
10:48:51:067 -> 2054.00
10:48:51:077 -> 2048.00
10:48:51:089 -> 2011.00
10:48:51:098 -> 1939.00
10:48:51:109 -> 1997.00
10:48:51:119 -> 2026.00
10:48:51:129 -> 1963.00
10:48:51:140 -> 2002.00
10:48:51:150 -> 1981.00
10:48:51:160 -> 2166.00
10:48:51:171 -> 1819.00
10:48:51:181 -> 2138.00
10:48:51:191 -> 1886.00
10:48:51:201 -> 1952.00
10:48:51:212 -> 1843.00
10:48:51:222 -> 2043.00
10:48:51:252 -> 1955.00
10:48:51:254 -> 2044.00
10:48:51:255 -> 2027.00
10:48:51:263 -> 2032.00
10:48:51:273 -> 2034.00
10:48:51:284 -> 2047.00
10:48:51:294 -> 2060.00
10:48:51:304 -> 2064.00
10:48:51:314 -> 1939.00
10:48:51:325 -> 2014.00
10:48:51:335 -> 1995.00
10:48:51:356 -> 1959.00
10:48:51:345 -> 2045.00
10:48:51:366 -> 2001.00
10:48:51:378 -> 1947.00
10:48:51:403 -> 2043.00
10:48:51:403 -> 1966.00
10:48:51:407 -> 2017.00
10:48:51:418 -> 1995.00
10:48:51:429 -> 2007.00
10:48:51:438 -> 1961.00
10:48:51:448 -> 1882.00
10:48:51:459 -> 1970.00
10:48:51:469 -> 1983.00
10:48:51:480 -> 2024.00
10:48:51:490 -> 1997.00
10:48:51:500 -> 2034.00
10:48:51:511 -> 2005.00
10:48:51:521 -> 2039.00
10:48:51:531 -> 2054.00
10:48:51:541 -> 2104.00
10:48:51:552 -> 1928.00
10:48:51:562 -> 2113.00
10:48:51:572 -> 1932.00
10:48:51:587 -> 2139.00
10:48:51:593 -> 2059.00
10:48:51:603 -> 2077.00
10:48:51:613 -> 2008.00
10:48:51:624 -> 2094.00
10:48:51:634 -> 1978.00
10:48:51:644 -> 2098.00
10:48:51:655 -> 1966.00
10:48:51:665 -> 2003.00
10:48:51:675 -> 1993.00
10:48:51:685 -> 2086.00
10:48:51:696 -> 1997.00
10:48:51:706 -> 1963.00
10:48:51:716 -> 1993.00
10:48:51:727 -> 2066.00
10:48:51:737 -> 2015.00
10:48:51:747 -> 2004.00
10:48:51:769 -> 1983.00
10:48:51:769 -> 2084.00
10:48:51:778 -> 2037.00
10:48:51:788 -> 2000.00
10:48:51:799 -> 2044.00
10:48:51:809 -> 1955.00
10:48:51:824 -> 2029.00
10:48:51:830 -> 2033.00
10:48:51:840 -> 1994.00
10:48:51:850 -> 1979.00
10:48:51:861 -> 2097.00
10:48:51:871 -> 1972.00
10:48:51:881 -> 2111.00
10:48:51:892 -> 1954.00
10:48:51:902 -> 2085.00
10:48:51:912 -> 1954.00
10:48:51:923 -> 2122.00
10:48:51:933 -> 1902.00
10:48:51:943 -> 2097.00
10:48:51:954 -> 1930.00
10:48:51:965 -> 2118.00
10:48:51:974 -> 1987.00
10:48:51:985 -> 2129.00
10:48:51:995 -> 1954.00
10:48:52:005 -> 2081.00
10:48:52:016 -> 1960.00
10:48:52:026 -> 2108.00
10:48:52:036 -> 2064.00
10:48:52:047 -> 2034.00
10:48:52:057 -> 2031.00
10:48:52:067 -> 2018.00
10:48:52:077 -> 2014.00
10:48:52:088 -> 2127.00
10:48:52:098 -> 1952.00
10:48:52:112 -> 1929.00
10:48:52:120 -> 1970.00
10:48:52:130 -> 2013.00
10:48:52:140 -> 2119.00
10:48:52:151 -> 1973.00
10:48:52:161 -> 2108.00
10:48:52:171 -> 1944.00
10:48:52:181 -> 2104.00
10:48:52:192 -> 1989.00
10:48:52:202 -> 2025.00
10:48:52:212 -> 1952.00
10:48:52:222 -> 2045.00
10:48:52:260 -> 1984.00
10:48:52:260 -> 2107.00
10:48:52:260 -> 1943.00
10:48:52:263 -> 2062.00
10:48:52:292 -> 1963.00
10:48:52:293 -> 2068.00
10:48:52:294 -> 1959.00
10:48:52:305 -> 2104.00
10:48:52:315 -> 1943.00
10:48:52:326 -> 2051.00
10:48:52:336 -> 1974.00
10:48:52:346 -> 2099.00
10:48:52:356 -> 2033.00
10:48:52:367 -> 1940.00
10:48:52:377 -> 2107.00
10:48:52:387 -> 2092.00
10:48:52:398 -> 2036.00
10:48:52:412 -> 1925.00
10:48:52:418 -> 2062.00
10:48:52:429 -> 1973.00
10:48:52:439 -> 2102.00
10:48:52:449 -> 1965.00
10:48:52:460 -> 2089.00
10:48:52:470 -> 1976.00
10:48:52:480 -> 2080.00
10:48:52:491 -> 1948.00
10:48:52:501 -> 2095.00
10:48:52:511 -> 1977.00
10:48:52:521 -> 2108.00
10:48:52:533 -> 1951.00
10:48:52:542 -> 2108.00
10:48:52:552 -> 1945.00
10:48:52:563 -> 2093.00
10:48:52:573 -> 1940.00
10:48:52:584 -> 2075.00
10:48:52:594 -> 1959.00
10:48:52:604 -> 2064.00
10:48:52:615 -> 1969.00
10:48:52:625 -> 2004.00
10:48:52:635 -> 2014.00
10:48:52:648 -> 2058.00
10:48:52:656 -> 1989.00
10:48:52:666 -> 2035.00
10:48:52:677 -> 2016.00
10:48:52:687 -> 2044.00
10:48:52:697 -> 2039.00
10:48:52:707 -> 1992.00
10:48:52:718 -> 1994.00
10:48:52:728 -> 1934.00
10:48:52:739 -> 2061.00
10:48:52:749 -> 2001.00
10:48:52:759 -> 2015.00
10:48:52:770 -> 1988.00
10:48:52:780 -> 2062.00
10:48:52:790 -> 2014.00
10:48:52:810 -> 2104.00
10:48:52:811 -> 1949.00
10:48:52:821 -> 2086.00
10:48:52:832 -> 1960.00
10:48:52:842 -> 2092.00
10:48:52:853 -> 1951.00
10:48:52:863 -> 2057.00
10:48:52:873 -> 1983.00
10:48:52:883 -> 2076.00
10:48:52:894 -> 1963.00
10:48:52:905 -> 2118.00
10:48:52:915 -> 1923.00
10:48:52:925 -> 2059.00
10:48:52:935 -> 2010.00
10:48:52:946 -> 2047.00
10:48:52:956 -> 2040.00
10:48:52:966 -> 2041.00
10:48:52:977 -> 2030.00
10:48:52:987 -> 2157.00
10:48:52:998 -> 2013.00
10:48:53:008 -> 1947.00
10:48:53:018 -> 2017.00
10:48:53:028 -> 1950.00
10:48:53:039 -> 2069.00
10:48:53:049 -> 1956.00
10:48:53:059 -> 2078.00
10:48:53:070 -> 1968.00
10:48:53:080 -> 2095.00
10:48:53:090 -> 1959.00
10:48:53:101 -> 2085.00
10:48:53:111 -> 1968.00
10:48:53:121 -> 2091.00
10:48:53:131 -> 1975.00
10:48:53:142 -> 2088.00
10:48:53:152 -> 1973.00
10:48:53:162 -> 2075.00
10:48:53:172 -> 1968.00
10:48:53:183 -> 2127.00
10:48:53:193 -> 1946.00
10:48:53:203 -> 2075.00
10:48:53:214 -> 1973.00
10:48:53:225 -> 2088.00
10:48:53:234 -> 1959.00
10:48:53:245 -> 2061.00
10:48:53:255 -> 2013.00
10:48:53:265 -> 2058.00
10:48:53:276 -> 2026.00
10:48:53:286 -> 2037.00
10:48:53:296 -> 2042.00
10:48:53:307 -> 2081.00
10:48:53:332 -> 2033.00
10:48:53:333 -> 1894.00
10:48:53:338 -> 2037.00
10:48:53:348 -> 1937.00
10:48:53:358 -> 2049.00
10:48:53:369 -> 1977.00
10:48:53:379 -> 2070.00
10:48:53:389 -> 1941.00
10:48:53:422 -> 2070.00
10:48:53:423 -> 1995.00
10:48:53:423 -> 2086.00
10:48:53:431 -> 1972.00
10:48:53:440 -> 2110.00
10:48:53:451 -> 1958.00
10:48:53:461 -> 2099.00
10:48:53:471 -> 1951.00
10:48:53:482 -> 2108.00
10:48:53:492 -> 1938.00
10:48:53:502 -> 2102.00
10:48:53:513 -> 1969.00
10:48:53:523 -> 2095.00
10:48:53:534 -> 1976.00
10:48:53:544 -> 2088.00
10:48:53:554 -> 1994.00
10:48:53:565 -> 2031.00
10:48:53:575 -> 2043.00
10:48:53:585 -> 2065.00
10:48:53:596 -> 1968.00
10:48:53:606 -> 2016.00
10:48:53:616 -> 2044.00
10:48:53:627 -> 2042.00
10:48:53:637 -> 2035.00
10:48:53:647 -> 1921.00
10:48:53:657 -> 2039.00
10:48:53:668 -> 1969.00
10:48:53:678 -> 2045.00
10:48:53:689 -> 2015.00
10:48:53:699 -> 2078.00
10:48:53:709 -> 1977.00
10:48:53:720 -> 2086.00
10:48:53:730 -> 1990.00
10:48:53:740 -> 2106.00
10:48:53:750 -> 1965.00
10:48:53:761 -> 2087.00
10:48:53:771 -> 1957.00
10:48:53:781 -> 2065.00
10:48:53:792 -> 1947.00
10:48:53:802 -> 2092.00
10:48:53:813 -> 1960.00
10:48:53:823 -> 2090.00
10:48:53:849 -> 1966.00
10:48:53:850 -> 2074.00
10:48:53:854 -> 1956.00
10:48:53:864 -> 2053.00
10:48:53:875 -> 2005.00
10:48:53:885 -> 2008.00
10:48:53:895 -> 2019.00
10:48:53:905 -> 2053.00
10:48:53:915 -> 2017.00
10:48:53:930 -> 2018.00
10:48:53:937 -> 2029.00
10:48:53:947 -> 1942.00
10:48:53:957 -> 2015.00
10:48:53:968 -> 1971.00
10:48:53:978 -> 2070.00
10:48:53:988 -> 1993.00
10:48:53:999 -> 2058.00
10:48:54:009 -> 2007.00
10:48:54:019 -> 2051.00
10:48:54:030 -> 1978.00
10:48:54:040 -> 2083.00
10:48:54:050 -> 1990.00
10:48:54:061 -> 2098.00
10:48:54:071 -> 1920.00
10:48:54:081 -> 2039.00
10:48:54:092 -> 2042.00
10:48:54:102 -> 2048.00
10:48:54:113 -> 2025.00
10:48:54:123 -> 2108.00
10:48:54:133 -> 2046.00
10:48:54:147 -> 2034.00
10:48:54:154 -> 2054.00
10:48:54:164 -> 2010.00
10:48:54:175 -> 2077.00
10:48:54:185 -> 1987.00
10:48:54:195 -> 2063.00
10:48:54:206 -> 2072.00
10:48:54:216 -> 1995.00
10:48:54:226 -> 1889.00
10:48:54:242 -> 2032.00
10:48:54:247 -> 1766.00
10:48:54:257 -> 2092.00
10:48:54:268 -> 1994.00
10:48:54:278 -> 1942.00
10:48:54:288 -> 2046.00
10:48:54:299 -> 2076.00
10:48:54:309 -> 1983.00
10:48:54:319 -> 2082.00
10:48:54:330 -> 1930.00
10:48:54:340 -> 2062.00
10:48:54:366 -> 1985.00
10:48:54:368 -> 2057.00
10:48:54:371 -> 1958.00
10:48:54:381 -> 2110.00
10:48:54:391 -> 1990.00
10:48:54:401 -> 2058.00
10:48:54:412 -> 2006.00
10:48:54:422 -> 2097.00
10:48:54:433 -> 1967.00
10:48:54:443 -> 2040.00
10:48:54:453 -> 1986.00
10:48:54:464 -> 2071.00
10:48:54:495 -> 2093.00
10:48:54:495 -> 1969.00
10:48:54:495 -> 1961.00
10:48:54:505 -> 2066.00
10:48:54:515 -> 2024.00
10:48:54:525 -> 2017.00
10:48:54:535 -> 1990.00
10:48:54:546 -> 2121.00
10:48:54:556 -> 1977.00
10:48:54:567 -> 1890.00
10:48:54:577 -> 2066.00
10:48:54:587 -> 1875.00
10:48:54:597 -> 2085.00
10:48:54:609 -> 1984.00
10:48:54:618 -> 2045.00
10:48:54:628 -> 1974.00
10:48:54:639 -> 2158.00
10:48:54:649 -> 1943.00
10:48:54:659 -> 2116.00
10:48:54:670 -> 1946.00
10:48:54:680 -> 2143.00
10:48:54:690 -> 1957.00
10:48:54:701 -> 2092.00
10:48:54:711 -> 2013.00
10:48:54:721 -> 2037.00
10:48:54:731 -> 1918.00
10:48:54:742 -> 2075.00
10:48:54:753 -> 1904.00
10:48:54:763 -> 2141.00
10:48:54:773 -> 1970.00
10:48:54:783 -> 2045.00
10:48:54:793 -> 2003.00
10:48:54:804 -> 2137.00
10:48:54:814 -> 1993.00
10:48:54:824 -> 2065.00
10:48:54:835 -> 1969.00
10:48:54:845 -> 2005.00
10:48:54:855 -> 2037.00
10:48:54:885 -> 2097.00
10:48:54:886 -> 2067.00
10:48:54:887 -> 1829.00
10:48:54:897 -> 2093.00
10:48:54:907 -> 2004.00
10:48:54:917 -> 2091.00
10:48:54:928 -> 1979.00
10:48:54:938 -> 2028.00
10:48:54:948 -> 1970.00
10:48:54:959 -> 2120.00
10:48:54:969 -> 2017.00
10:48:54:979 -> 2075.00
10:48:54:990 -> 1965.00
10:48:55:000 -> 2116.00
10:48:55:010 -> 1908.00
10:48:55:021 -> 2099.00
10:48:55:031 -> 1879.00
10:48:55:041 -> 2075.00
10:48:55:052 -> 1960.00
10:48:55:064 -> 2110.00
10:48:55:072 -> 2058.00
10:48:55:082 -> 2079.00
10:48:55:093 -> 1986.00
10:48:55:103 -> 2065.00
10:48:55:113 -> 1958.00
10:48:55:124 -> 2034.00
10:48:55:134 -> 2007.00
10:48:55:144 -> 2038.00
10:48:55:155 -> 2041.00
10:48:55:165 -> 2050.00
10:48:55:175 -> 1993.00
10:48:55:186 -> 2027.00
10:48:55:196 -> 2007.00
10:48:55:206 -> 1862.00
10:48:55:216 -> 2090.00
10:48:55:227 -> 1977.00
10:48:55:238 -> 2059.00
10:48:55:248 -> 1974.00
10:48:55:258 -> 2093.00
10:48:55:268 -> 1952.00
10:48:55:279 -> 2098.00
10:48:55:293 -> 1969.00
10:48:55:299 -> 2113.00
10:48:55:309 -> 1973.00
10:48:55:320 -> 2087.00
10:48:55:330 -> 1944.00
10:48:55:341 -> 2098.00
10:48:55:351 -> 1973.00
10:48:55:361 -> 2058.00
10:48:55:372 -> 2012.00
10:48:55:382 -> 2105.00
10:48:55:403 -> 1927.00
10:48:55:405 -> 2079.00
10:48:55:413 -> 1976.00
10:48:55:423 -> 2059.00
10:48:55:434 -> 1991.00
10:48:55:444 -> 2072.00
10:48:55:454 -> 2025.00
10:48:55:465 -> 1988.00
10:48:55:475 -> 2055.00
10:48:55:486 -> 1946.00
10:48:55:496 -> 2003.00
10:48:55:506 -> 1959.00
10:48:55:516 -> 2033.00
10:48:55:527 -> 1919.00
10:48:55:537 -> 2089.00
10:48:55:547 -> 1968.00
10:48:55:578 -> 2097.00
10:48:55:578 -> 1967.00
10:48:55:579 -> 2084.00
10:48:55:589 -> 1971.00
10:48:55:599 -> 2077.00
10:48:55:609 -> 1984.00
10:48:55:619 -> 2067.00
10:48:55:630 -> 1969.00
10:48:55:640 -> 2041.00
10:48:55:650 -> 1955.00
10:48:55:661 -> 2108.00
10:48:55:671 -> 1917.00
10:48:55:681 -> 2081.00
10:48:55:692 -> 1954.00
10:48:55:703 -> 2108.00
10:48:55:712 -> 1986.00
10:48:55:723 -> 2038.00
10:48:55:733 -> 2015.00
10:48:55:743 -> 2060.00
10:48:55:754 -> 1989.00
10:48:55:764 -> 2025.00
10:48:55:774 -> 2029.00
10:48:55:784 -> 2036.00
10:48:55:795 -> 1974.00
10:48:55:805 -> 2112.00
10:48:55:815 -> 2052.00
10:48:55:825 -> 1947.00
10:48:55:837 -> 2046.00
10:48:55:846 -> 1910.00
10:48:55:857 -> 2023.00
10:48:55:867 -> 1940.00
10:48:55:877 -> 2056.00
10:48:55:888 -> 1969.00
10:48:55:898 -> 2086.00
10:48:55:925 -> 1975.00
10:48:55:925 -> 2114.00
10:48:55:929 -> 1965.00
10:48:55:939 -> 2096.00
10:48:55:949 -> 1967.00
10:48:55:960 -> 2079.00
10:48:55:970 -> 1941.00
10:48:55:983 -> 2101.00
10:48:55:991 -> 1959.00
10:48:56:001 -> 2117.00
10:48:56:011 -> 1945.00
10:48:56:022 -> 2086.00
10:48:56:032 -> 1980.00
10:48:56:042 -> 2074.00
10:48:56:053 -> 1985.00
10:48:56:063 -> 2028.00
10:48:56:073 -> 2012.00
10:48:56:084 -> 2030.00
10:48:56:094 -> 2005.00
10:48:56:104 -> 2069.00
10:48:56:115 -> 2030.00
10:48:56:125 -> 1973.00
10:48:56:136 -> 2039.00
10:48:56:146 -> 1964.00
10:48:56:156 -> 2040.00
10:48:56:166 -> 1973.00
10:48:56:177 -> 2054.00
10:48:56:187 -> 1948.00
10:48:56:198 -> 2115.00
10:48:56:208 -> 1931.00
10:48:56:218 -> 2111.00
10:48:56:228 -> 1965.00
10:48:56:239 -> 2132.00
10:48:56:249 -> 1940.00
10:48:56:259 -> 2080.00
10:48:56:270 -> 1957.00
10:48:56:280 -> 2109.00
10:48:56:290 -> 1962.00
10:48:56:301 -> 2102.00
10:48:56:311 -> 1928.00
10:48:56:322 -> 2053.00
10:48:56:332 -> 1972.00
10:48:56:342 -> 2076.00
10:48:56:352 -> 1999.00
10:48:56:363 -> 2020.00
10:48:56:373 -> 2021.00
10:48:56:384 -> 2050.00
10:48:56:394 -> 2035.00
10:48:56:404 -> 2112.00
10:48:56:415 -> 2041.00
10:48:56:441 -> 1905.00
10:48:56:442 -> 2048.00
10:48:56:446 -> 1972.00
10:48:56:456 -> 2060.00
10:48:56:466 -> 1990.00
10:48:56:477 -> 2072.00
10:48:56:487 -> 1993.00
10:48:56:497 -> 2092.00
10:48:56:508 -> 1966.00
10:48:56:518 -> 2103.00
10:48:56:529 -> 1991.00
10:48:56:558 -> 2120.00
10:48:56:558 -> 1932.00
10:48:56:559 -> 2097.00
10:48:56:570 -> 2006.00
10:48:56:580 -> 2100.00
10:48:56:590 -> 1972.00
10:48:56:601 -> 2109.00
10:48:56:611 -> 1964.00
10:48:56:621 -> 2094.00
10:48:56:632 -> 2017.00
10:48:56:642 -> 2057.00
10:48:56:652 -> 2019.00
10:48:56:663 -> 1972.00
10:48:56:673 -> 1999.00
10:48:56:683 -> 2034.00
10:48:56:694 -> 2037.00
10:48:56:704 -> 2010.00
10:48:56:714 -> 2047.00
10:48:56:725 -> 1915.00
10:48:56:735 -> 2039.00
10:48:56:747 -> 1958.00
10:48:56:756 -> 2060.00
10:48:56:766 -> 1916.00
10:48:56:777 -> 2053.00
10:48:56:787 -> 1971.00
10:48:56:797 -> 2071.00
10:48:56:808 -> 1967.00
10:48:56:818 -> 2066.00
10:48:56:828 -> 1994.00
10:48:56:839 -> 2102.00
10:48:56:849 -> 2029.00
10:48:56:859 -> 2078.00
10:48:56:870 -> 1903.00
10:48:56:880 -> 2075.00
10:48:56:890 -> 1942.00
10:48:56:901 -> 2061.00
10:48:56:911 -> 1946.00
10:48:56:921 -> 2056.00
10:48:56:932 -> 1990.00
10:48:56:967 -> 2019.00
10:48:56:967 -> 2019.00
10:48:56:967 -> 1991.00
10:48:56:973 -> 2055.00
10:48:56:984 -> 2000.00
10:48:56:994 -> 2060.00
10:48:57:004 -> 2040.00
10:48:57:015 -> 2043.00
10:48:57:025 -> 1951.00
10:48:57:035 -> 2044.00
10:48:57:045 -> 1959.00
10:48:57:057 -> 1970.00
10:48:57:066 -> 1976.00
10:48:57:077 -> 2067.00
10:48:57:087 -> 1980.00
10:48:57:097 -> 2062.00
10:48:57:108 -> 1980.00
10:48:57:118 -> 2112.00
10:48:57:128 -> 1977.00
10:48:57:139 -> 2081.00
10:48:57:150 -> 1988.00
10:48:57:162 -> 2096.00
10:48:57:170 -> 1936.00
10:48:57:180 -> 2062.00
10:48:57:190 -> 1960.00
10:48:57:201 -> 2085.00
10:48:57:211 -> 1990.00
10:48:57:221 -> 2003.00
10:48:57:232 -> 1975.00
10:48:57:242 -> 2077.00
10:48:57:252 -> 2015.00
10:48:57:263 -> 2036.00
10:48:57:275 -> 2033.00
10:48:57:283 -> 2052.00
10:48:57:294 -> 2005.00
10:48:57:304 -> 2092.00
10:48:57:314 -> 2046.00
10:48:57:325 -> 1943.00
10:48:57:335 -> 2020.00
10:48:57:346 -> 1941.00
10:48:57:356 -> 2087.00
10:48:57:366 -> 1918.00
10:48:57:376 -> 2084.00
10:48:57:387 -> 1888.00
10:48:57:398 -> 2150.00
10:48:57:407 -> 1943.00
10:48:57:418 -> 2066.00
10:48:57:428 -> 2014.00
10:48:57:438 -> 2103.00
10:48:57:449 -> 1980.00
10:48:57:459 -> 2030.00
10:48:57:482 -> 2005.00
10:48:57:482 -> 2121.00
10:48:57:490 -> 2006.00
10:48:57:500 -> 1995.00
10:48:57:511 -> 1997.00
10:48:57:521 -> 2090.00
10:48:57:531 -> 1881.00
10:48:57:542 -> 2152.00
10:48:57:581 -> 2072.00
10:48:57:581 -> 2092.00
10:48:57:581 -> 1975.00
10:48:57:582 -> 2126.00
10:48:57:593 -> 1986.00
10:48:57:603 -> 2019.00
10:48:57:613 -> 2030.00
10:48:57:624 -> 2202.00
10:48:57:634 -> 1988.00
10:48:57:644 -> 1948.00
10:48:57:654 -> 2025.00
10:48:57:665 -> 1920.00
10:48:57:675 -> 2148.00
10:48:57:686 -> 1937.00
10:48:57:697 -> 2056.00
10:48:57:707 -> 2024.00
10:48:57:717 -> 2091.00
10:48:57:728 -> 1944.00
10:48:57:742 -> 2168.00
10:48:57:748 -> 1880.00
10:48:57:759 -> 2081.00
10:48:57:769 -> 1954.00
10:48:57:779 -> 2083.00
10:48:57:790 -> 1788.00
10:48:57:800 -> 2082.00
10:48:57:810 -> 2014.00
10:48:57:821 -> 2050.00
10:48:57:831 -> 2096.00
10:48:57:841 -> 2051.00
10:48:57:852 -> 2012.00
10:48:57:862 -> 2002.00
10:48:57:872 -> 2134.00
10:48:57:883 -> 1985.00
10:48:57:893 -> 2062.00
10:48:57:904 -> 2098.00
10:48:57:914 -> 2070.00
10:48:57:924 -> 1939.00
10:48:57:934 -> 2063.00
10:48:57:945 -> 1943.00
10:48:57:955 -> 2102.00
10:48:57:966 -> 1947.00
10:48:57:976 -> 2079.00
10:48:58:000 -> 2057.00
10:48:58:001 -> 2031.00
10:48:58:007 -> 1943.00
10:48:58:017 -> 2147.00
10:48:58:028 -> 1970.00
10:48:58:038 -> 2100.00
10:48:58:048 -> 1978.00
10:48:58:059 -> 2052.00
10:48:58:071 -> 1914.00
10:48:58:079 -> 2096.00
10:48:58:090 -> 1954.00
10:48:58:100 -> 2085.00
10:48:58:110 -> 1978.00
10:48:58:121 -> 2134.00
10:48:58:131 -> 2010.00
10:48:58:141 -> 2024.00
10:48:58:152 -> 1921.00
10:48:58:162 -> 2045.00
10:48:58:172 -> 1983.00
10:48:58:182 -> 2091.00
10:48:58:193 -> 2057.00
10:48:58:203 -> 2063.00
10:48:58:213 -> 2011.00
10:48:58:224 -> 2056.00
10:48:58:234 -> 1982.00
10:48:58:244 -> 1913.00
10:48:58:255 -> 2052.00
10:48:58:265 -> 1951.00
10:48:58:275 -> 2125.00
10:48:58:286 -> 1983.00
10:48:58:296 -> 2093.00
10:48:58:306 -> 1997.00
10:48:58:316 -> 2101.00
10:48:58:327 -> 1956.00
10:48:58:337 -> 2098.00
10:48:58:347 -> 1896.00
10:48:58:358 -> 2094.00
10:48:58:368 -> 1973.00
10:48:58:378 -> 2071.00
10:48:58:389 -> 1955.00
10:48:58:399 -> 2101.00
10:48:58:409 -> 1949.00
10:48:58:420 -> 2069.00
10:48:58:430 -> 1967.00
10:48:58:441 -> 2065.00
10:48:58:451 -> 1948.00
10:48:58:461 -> 2081.00
10:48:58:471 -> 2000.00
10:48:58:482 -> 1952.00
10:48:58:492 -> 2042.00
10:48:58:517 -> 2020.00
10:48:58:517 -> 2047.00
10:48:58:523 -> 2058.00
10:48:58:533 -> 2026.00
10:48:58:547 -> 1940.00
10:48:58:554 -> 2016.00
10:48:58:564 -> 1987.00
10:48:58:575 -> 2066.00
10:48:58:585 -> 1978.00
10:48:58:596 -> 2089.00
10:48:58:606 -> 1957.00
10:48:58:616 -> 2086.00
10:48:58:627 -> 1962.00
10:48:58:637 -> 2079.00
10:48:58:670 -> 1967.00
10:48:58:670 -> 2113.00
10:48:58:670 -> 1965.00
10:48:58:679 -> 2111.00
10:48:58:689 -> 1925.00
10:48:58:700 -> 2050.00
10:48:58:710 -> 1951.00
10:48:58:720 -> 2092.00
10:48:58:730 -> 1993.00
10:48:58:740 -> 2074.00
10:48:58:751 -> 1995.00
10:48:58:761 -> 2048.00
10:48:58:771 -> 1984.00
10:48:58:781 -> 2035.00
10:48:58:792 -> 2028.00
10:48:58:802 -> 2022.00
10:48:58:815 -> 2053.00
10:48:58:823 -> 2127.00
10:48:58:833 -> 2035.00
10:48:58:843 -> 1946.00
10:48:58:854 -> 2047.00
10:48:58:864 -> 1934.00
10:48:58:874 -> 2041.00
10:48:58:884 -> 1929.00
10:48:58:895 -> 2025.00
10:48:58:905 -> 1991.00
10:48:58:916 -> 2073.00
10:48:58:926 -> 1982.00
10:48:58:936 -> 2091.00
10:48:58:947 -> 1972.00
10:48:58:957 -> 2042.00
10:48:58:967 -> 1967.00
10:48:58:977 -> 2020.00
10:48:58:988 -> 1987.00
10:48:58:998 -> 2114.00
10:48:59:009 -> 1946.00
10:48:59:033 -> 2095.00
10:48:59:034 -> 1951.00
10:48:59:040 -> 2059.00
10:48:59:050 -> 1967.00
10:48:59:060 -> 2054.00
10:48:59:070 -> 1990.00
10:48:59:081 -> 2033.00
10:48:59:091 -> 2019.00
10:48:59:103 -> 2027.00
10:48:59:113 -> 2031.00
10:48:59:123 -> 1919.00
10:48:59:134 -> 2055.00
10:48:59:144 -> 1953.00
10:48:59:154 -> 2046.00
10:48:59:165 -> 1990.00
10:48:59:175 -> 2067.00
10:48:59:185 -> 1961.00
10:48:59:196 -> 2084.00
10:48:59:206 -> 1983.00
10:48:59:216 -> 2045.00
10:48:59:227 -> 2016.00
10:48:59:237 -> 2063.00
10:48:59:248 -> 1939.00
10:48:59:258 -> 2102.00
10:48:59:268 -> 1972.00
10:48:59:279 -> 2116.00
10:48:59:289 -> 1955.00
10:48:59:299 -> 2085.00
10:48:59:310 -> 1977.00
10:48:59:320 -> 2081.00
10:48:59:330 -> 2014.00
10:48:59:340 -> 2077.00
10:48:59:351 -> 1990.00
10:48:59:361 -> 2062.00
10:48:59:372 -> 2009.00
10:48:59:382 -> 2006.00
10:48:59:392 -> 2055.00
10:48:59:403 -> 2086.00
10:48:59:413 -> 2029.00
10:48:59:423 -> 1909.00
10:48:59:440 -> 2047.00
10:48:59:456 -> 1912.00
10:48:59:456 -> 2053.00
10:48:59:465 -> 1978.00
10:48:59:475 -> 2108.00
10:48:59:486 -> 1962.00
10:48:59:496 -> 2142.00
10:48:59:506 -> 1935.00
10:48:59:516 -> 2137.00
10:48:59:527 -> 1956.00
10:48:59:552 -> 2052.00
10:48:59:553 -> 1956.00
10:48:59:562 -> 2063.00
10:48:59:568 -> 1915.00
10:48:59:579 -> 2110.00
10:48:59:589 -> 1963.00
10:48:59:600 -> 2067.00
10:48:59:610 -> 1980.00
10:48:59:621 -> 2039.00
10:48:59:631 -> 1991.00
10:48:59:641 -> 1985.00
10:48:59:651 -> 2026.00
10:48:59:662 -> 2079.00
10:48:59:674 -> 2014.00
10:48:59:682 -> 2080.00
10:48:59:692 -> 2050.00
10:48:59:703 -> 1884.00
10:48:59:713 -> 2054.00
10:48:59:723 -> 1928.00
10:48:59:734 -> 2069.00
10:48:59:744 -> 1985.00
10:48:59:754 -> 2064.00
10:48:59:765 -> 1976.00
10:48:59:775 -> 2026.00
10:48:59:785 -> 1972.00
10:48:59:796 -> 2113.00
10:48:59:806 -> 1988.00
10:48:59:816 -> 2093.00
10:48:59:828 -> 1964.00
10:48:59:837 -> 2081.00
10:48:59:847 -> 1961.00
10:48:59:858 -> 2093.00
10:48:59:868 -> 1948.00
10:48:59:878 -> 2056.00
10:48:59:889 -> 1969.00
10:48:59:899 -> 2025.00
10:48:59:909 -> 1980.00
10:48:59:920 -> 2079.00
10:48:59:930 -> 2006.00
10:48:59:940 -> 2044.00
10:48:59:950 -> 1986.00
10:48:59:961 -> 2042.00
10:48:59:971 -> 2005.00
10:48:59:982 -> 1974.00
10:48:59:992 -> 1981.00
10:49:00:002 -> 1935.00
10:49:00:012 -> 1976.00
10:49:00:023 -> 1894.00
10:49:00:033 -> 2042.00
10:49:00:044 -> 1968.00
10:49:00:070 -> 2056.00
10:49:00:071 -> 1941.00
10:49:00:074 -> 2045.00
10:49:00:085 -> 2047.00
10:49:00:095 -> 2141.00
10:49:00:106 -> 1924.00
10:49:00:116 -> 2071.00
10:49:00:126 -> 1971.00
10:49:00:136 -> 2053.00
10:49:00:147 -> 2054.00
10:49:00:157 -> 2042.00
10:49:00:167 -> 1981.00
10:49:00:178 -> 2127.00
10:49:00:188 -> 1897.00
10:49:00:199 -> 2055.00
10:49:00:209 -> 1979.00
10:49:00:219 -> 1868.00
10:49:00:230 -> 2012.00
10:49:00:240 -> 1966.00
10:49:00:250 -> 2055.00
10:49:00:262 -> 2041.00
10:49:00:271 -> 2023.00
10:49:00:281 -> 1975.00
10:49:00:315 -> 2032.00
10:49:00:315 -> 2022.00
10:49:00:315 -> 2071.00
10:49:00:323 -> 1845.00
10:49:00:333 -> 2046.00
10:49:00:343 -> 1844.00
10:49:00:354 -> 2110.00
10:49:00:364 -> 1961.00
10:49:00:375 -> 2029.00
10:49:00:385 -> 1967.00
10:49:00:395 -> 2007.00
10:49:00:406 -> 1924.00
10:49:00:416 -> 2164.00
10:49:00:428 -> 1874.00
10:49:00:436 -> 2126.00
10:49:00:447 -> 2040.00
10:49:00:457 -> 1994.00
10:49:00:468 -> 1706.00
10:49:00:478 -> 2192.00
10:49:00:488 -> 1959.00
10:49:00:499 -> 2065.00
10:49:00:509 -> 1993.00
10:49:00:519 -> 2045.00
10:49:00:531 -> 2041.00
10:49:00:540 -> 2002.00
10:49:00:550 -> 1952.00
10:49:00:561 -> 2048.00
10:49:00:588 -> 2060.00
10:49:00:591 -> 2088.00
10:49:00:592 -> 2024.00
10:49:00:602 -> 2050.00
10:49:00:612 -> 2007.00
10:49:00:622 -> 1972.00
10:49:00:633 -> 2043.00
10:49:00:643 -> 1933.00
10:49:00:653 -> 2100.00
10:49:00:663 -> 2028.00
10:49:00:674 -> 2076.00
10:49:00:688 -> 1959.00
10:49:00:694 -> 1988.00
10:49:00:705 -> 1888.00
10:49:00:715 -> 2047.00
10:49:00:725 -> 1988.00
10:49:00:736 -> 1990.00
10:49:00:747 -> 1972.00
10:49:00:756 -> 2030.00
10:49:00:766 -> 1987.00
10:49:00:777 -> 2048.00
10:49:00:787 -> 2005.00
10:49:00:797 -> 2124.00
10:49:00:807 -> 1885.00
10:49:00:818 -> 2092.00
10:49:00:828 -> 1991.00
10:49:00:839 -> 2078.00
10:49:00:849 -> 1953.00
10:49:00:859 -> 1978.00
10:49:00:870 -> 1980.00
10:49:00:880 -> 2024.00
10:49:00:890 -> 2034.00
10:49:00:901 -> 2089.00
10:49:00:911 -> 1972.00
10:49:00:921 -> 2031.00
10:49:00:931 -> 2086.00
10:49:00:942 -> 1949.00
10:49:00:952 -> 2093.00
10:49:00:963 -> 1929.00
10:49:00:973 -> 2098.00
10:49:00:983 -> 2016.00
10:49:00:994 -> 2101.00
10:49:01:004 -> 2004.00
10:49:01:014 -> 2061.00
10:49:01:025 -> 1969.00
10:49:01:035 -> 2105.00
10:49:01:045 -> 1933.00
10:49:01:056 -> 2117.00
10:49:01:066 -> 1932.00
10:49:01:076 -> 2111.00
10:49:01:086 -> 1977.00
10:49:01:121 -> 2065.00
10:49:01:121 -> 1923.00
10:49:01:121 -> 2088.00
10:49:01:128 -> 1892.00
10:49:01:138 -> 2109.00
10:49:01:148 -> 1941.00
10:49:01:159 -> 2055.00
10:49:01:169 -> 1991.00
10:49:01:179 -> 2085.00
10:49:01:190 -> 2003.00
10:49:01:203 -> 2033.00
10:49:01:211 -> 2039.00
10:49:01:221 -> 2040.00
10:49:01:231 -> 2043.00
10:49:01:241 -> 2121.00
10:49:01:252 -> 2022.00
10:49:01:262 -> 1861.00
10:49:01:272 -> 2060.00
10:49:01:283 -> 1942.00
10:49:01:293 -> 2052.00
10:49:01:303 -> 1983.00
10:49:01:313 -> 2052.00
10:49:01:324 -> 1994.00
10:49:01:334 -> 2021.00
10:49:01:344 -> 1983.00
10:49:01:355 -> 2097.00
10:49:01:365 -> 1981.00
10:49:01:380 -> 2111.00
10:49:01:386 -> 1958.00
10:49:01:396 -> 2106.00
10:49:01:407 -> 1903.00
10:49:01:417 -> 2076.00
10:49:01:427 -> 1943.00
10:49:01:437 -> 2107.00
10:49:01:448 -> 1972.00
10:49:01:458 -> 2091.00
10:49:01:468 -> 1966.00
10:49:01:479 -> 2073.00
10:49:01:490 -> 2009.00
10:49:01:500 -> 2010.00
10:49:01:510 -> 2029.00
10:49:01:524 -> 2017.00
10:49:01:531 -> 2055.00
10:49:01:541 -> 2040.00
10:49:01:552 -> 2031.00
10:49:01:562 -> 1918.00
10:49:01:572 -> 2049.00
10:49:01:582 -> 1963.00
10:49:01:593 -> 2054.00
10:49:01:603 -> 1978.00
10:49:01:613 -> 2054.00
10:49:01:640 -> 1972.00
10:49:01:640 -> 2077.00
10:49:01:648 -> 1961.00
10:49:01:655 -> 2062.00
10:49:01:665 -> 1969.00
10:49:01:675 -> 2113.00
10:49:01:686 -> 1931.00
10:49:01:696 -> 2094.00
10:49:01:706 -> 1957.00
10:49:01:716 -> 2067.00
10:49:01:727 -> 1935.00
10:49:01:737 -> 2058.00
10:49:01:748 -> 1974.00
10:49:01:758 -> 2094.00
10:49:01:768 -> 1986.00
10:49:01:779 -> 2075.00
10:49:01:789 -> 2006.00
10:49:01:799 -> 2056.00
10:49:01:809 -> 1974.00
10:49:01:820 -> 2066.00
10:49:01:830 -> 2033.00
10:49:01:841 -> 2014.00
10:49:01:856 -> 2031.00
10:49:01:861 -> 1997.00
10:49:01:871 -> 2049.00
10:49:01:882 -> 1955.00
10:49:01:892 -> 2040.00
10:49:01:904 -> 1988.00
10:49:01:913 -> 2041.00
10:49:01:923 -> 1933.00
10:49:01:934 -> 2083.00
10:49:01:944 -> 1963.00
10:49:01:979 -> 2108.00
10:49:01:979 -> 1969.00
10:49:01:979 -> 2110.00
10:49:01:985 -> 1985.00
10:49:01:995 -> 2091.00
10:49:02:006 -> 1920.00
10:49:02:016 -> 2077.00
10:49:02:027 -> 1970.00
10:49:02:037 -> 2084.00
10:49:02:047 -> 1889.00
10:49:02:057 -> 2090.00
10:49:02:068 -> 1990.00
10:49:02:078 -> 2088.00
10:49:02:088 -> 1966.00
10:49:02:099 -> 2060.00
10:49:02:109 -> 1974.00
10:49:02:119 -> 2046.00
10:49:02:130 -> 2010.00
10:49:02:158 -> 2038.00
10:49:02:158 -> 2032.00
10:49:02:160 -> 2037.00
10:49:02:171 -> 2046.00
10:49:02:181 -> 1929.00
10:49:02:191 -> 2034.00
10:49:02:202 -> 1948.00
10:49:02:212 -> 2055.00
10:49:02:222 -> 1986.00
10:49:02:233 -> 2049.00
10:49:02:244 -> 1984.00
10:49:02:253 -> 2030.00
10:49:02:263 -> 2021.00
10:49:02:274 -> 2092.00
10:49:02:284 -> 1969.00
10:49:02:294 -> 2100.00
10:49:02:305 -> 1975.00
10:49:02:315 -> 2086.00
10:49:02:325 -> 1932.00
10:49:02:336 -> 2064.00
10:49:02:346 -> 1947.00
10:49:02:356 -> 2090.00
10:49:02:368 -> 1877.00
10:49:02:377 -> 2100.00
10:49:02:387 -> 1946.00
10:49:02:397 -> 2080.00
10:49:02:408 -> 1968.00
10:49:02:418 -> 2078.00
10:49:02:429 -> 2015.00
10:49:02:439 -> 2077.00
10:49:02:450 -> 2029.00
10:49:02:460 -> 2029.00
10:49:02:470 -> 2031.00
10:49:02:481 -> 2086.00
10:49:02:491 -> 2017.00
10:49:02:501 -> 1940.00
10:49:02:512 -> 2021.00
10:49:02:523 -> 1975.00
10:49:02:533 -> 2028.00
10:49:02:543 -> 1982.00
10:49:02:553 -> 2093.00
10:49:02:563 -> 1937.00
10:49:02:574 -> 2148.00
10:49:02:584 -> 1949.00
10:49:02:594 -> 2088.00
10:49:02:605 -> 1961.00
10:49:02:618 -> 2114.00
10:49:02:625 -> 1938.00
10:49:02:636 -> 2095.00
10:49:02:646 -> 1939.00
10:49:02:683 -> 2125.00
10:49:02:683 -> 1947.00
10:49:02:683 -> 2079.00
10:49:02:687 -> 1976.00
10:49:02:698 -> 2125.00
10:49:02:708 -> 1963.00
10:49:02:718 -> 2031.00
10:49:02:729 -> 1988.00
10:49:02:739 -> 2058.00
10:49:02:750 -> 2019.00
10:49:02:764 -> 2051.00
10:49:02:771 -> 2026.00
10:49:02:781 -> 1938.00
10:49:02:792 -> 2043.00
10:49:02:802 -> 1971.00
10:49:02:812 -> 2038.00
10:49:02:823 -> 1989.00
10:49:02:833 -> 2074.00
10:49:02:843 -> 2019.00
10:49:02:854 -> 2068.00
10:49:02:864 -> 1981.00
10:49:02:878 -> 2067.00
10:49:02:884 -> 1957.00
10:49:02:895 -> 2115.00
10:49:02:905 -> 1974.00
10:49:02:916 -> 2119.00
10:49:02:925 -> 1949.00
10:49:02:936 -> 2092.00
10:49:02:946 -> 1774.00
10:49:02:957 -> 2074.00
10:49:02:967 -> 1945.00
10:49:02:977 -> 2098.00
10:49:02:987 -> 1991.00
10:49:02:998 -> 2048.00
10:49:03:011 -> 1983.00
10:49:03:019 -> 2046.00
10:49:03:029 -> 1983.00
10:49:03:039 -> 2059.00
10:49:03:050 -> 2022.00
10:49:03:060 -> 2030.00
10:49:03:070 -> 2035.00
10:49:03:080 -> 2033.00
10:49:03:091 -> 2025.00
10:49:03:101 -> 1972.00
10:49:03:112 -> 2033.00
10:49:03:122 -> 1993.00
10:49:03:170 -> 2049.00
10:49:03:170 -> 1997.00
10:49:03:170 -> 2101.00
10:49:03:170 -> 1930.00
10:49:03:173 -> 2108.00
10:49:03:203 -> 1977.00
10:49:03:203 -> 2101.00
10:49:03:204 -> 1925.00
10:49:03:214 -> 2135.00
10:49:03:225 -> 1929.00
10:49:03:235 -> 2116.00
10:49:03:245 -> 1929.00
10:49:03:256 -> 2113.00
10:49:03:266 -> 1948.00
10:49:03:276 -> 2102.00
10:49:03:287 -> 1956.00
10:49:03:297 -> 2099.00
10:49:03:307 -> 1955.00
10:49:03:318 -> 2096.00
10:49:03:328 -> 1980.00
10:49:03:338 -> 2042.00
10:49:03:349 -> 1943.00
10:49:03:359 -> 2078.00
10:49:03:369 -> 2027.00
10:49:03:380 -> 2045.00
10:49:03:390 -> 2051.00
10:49:03:400 -> 2096.00
10:49:03:411 -> 2030.00
10:49:03:421 -> 1930.00
10:49:03:431 -> 2029.00
10:49:03:442 -> 1997.00
10:49:03:452 -> 2053.00
10:49:03:463 -> 1918.00
10:49:03:473 -> 2097.00
10:49:03:483 -> 1988.00
10:49:03:496 -> 2099.00
10:49:03:504 -> 1939.00
10:49:03:514 -> 2118.00
10:49:03:524 -> 1943.00
10:49:03:535 -> 2082.00
10:49:03:545 -> 1968.00
10:49:03:555 -> 2097.00
10:49:03:565 -> 1951.00
10:49:03:576 -> 2080.00
10:49:03:586 -> 1824.00
10:49:03:596 -> 2089.00
10:49:03:606 -> 1959.00
10:49:03:617 -> 2049.00
10:49:03:627 -> 1942.00
10:49:03:637 -> 2081.00
10:49:03:648 -> 1972.00
10:49:03:658 -> 2091.00
10:49:03:668 -> 1995.00
10:49:03:679 -> 2061.00
10:49:03:689 -> 2005.00
10:49:03:699 -> 2044.00
10:49:03:728 -> 2017.00
10:49:03:729 -> 1996.00
10:49:03:730 -> 2014.00
10:49:03:741 -> 1943.00
10:49:03:751 -> 2036.00
10:49:03:764 -> 2026.00
10:49:03:771 -> 2040.00
10:49:03:782 -> 1985.00
10:49:03:792 -> 2082.00
10:49:03:802 -> 1967.00
10:49:03:813 -> 2062.00
10:49:03:824 -> 1953.00
10:49:03:833 -> 2066.00
10:49:03:843 -> 1954.00
10:49:03:854 -> 2118.00
10:49:03:864 -> 1966.00
10:49:03:874 -> 2093.00
10:49:03:888 -> 1958.00
10:49:03:895 -> 2106.00
10:49:03:905 -> 1938.00
10:49:03:916 -> 2113.00
10:49:03:926 -> 1938.00
10:49:03:936 -> 2098.00
10:49:03:947 -> 1966.00
10:49:03:957 -> 2025.00
10:49:03:967 -> 1973.00
10:49:03:978 -> 2052.00
10:49:03:988 -> 1958.00
10:49:03:998 -> 2057.00
10:49:04:009 -> 2000.00
10:49:04:019 -> 2040.00
10:49:04:030 -> 2005.00
10:49:04:040 -> 1940.00
10:49:04:050 -> 2031.00
10:49:04:061 -> 1978.00
10:49:04:071 -> 2061.00
10:49:04:086 -> 1982.00
10:49:04:092 -> 2032.00
10:49:04:102 -> 1963.00
10:49:04:112 -> 2059.00
10:49:04:122 -> 1948.00
10:49:04:133 -> 2075.00
10:49:04:143 -> 1946.00
10:49:04:153 -> 2107.00
10:49:04:164 -> 1973.00
10:49:04:174 -> 2130.00
10:49:04:189 -> 1946.00
10:49:04:224 -> 2092.00
10:49:04:225 -> 1960.00
10:49:04:225 -> 2106.00
10:49:04:225 -> 1965.00
10:49:04:252 -> 2103.00
10:49:04:252 -> 1980.00
10:49:04:256 -> 2084.00
10:49:04:267 -> 1958.00
10:49:04:277 -> 2048.00
10:49:04:288 -> 1967.00
10:49:04:298 -> 2058.00
10:49:04:308 -> 1949.00
10:49:04:318 -> 2051.00
10:49:04:329 -> 2034.00
10:49:04:339 -> 2007.00
10:49:04:350 -> 2010.00
10:49:04:360 -> 1942.00
10:49:04:371 -> 2044.00
10:49:04:381 -> 1980.00
10:49:04:391 -> 2030.00
10:49:04:401 -> 2004.00
10:49:04:412 -> 2066.00
10:49:04:422 -> 1986.00
10:49:04:432 -> 2090.00
10:49:04:443 -> 1955.00
10:49:04:453 -> 2116.00
10:49:04:463 -> 1966.00
10:49:04:474 -> 2084.00
10:49:04:484 -> 1942.00
10:49:04:494 -> 2087.00
10:49:04:505 -> 1954.00
10:49:04:515 -> 2124.00
10:49:04:525 -> 1948.00
10:49:04:536 -> 2065.00
10:49:04:546 -> 1940.00
10:49:04:556 -> 2075.00
10:49:04:566 -> 1966.00
10:49:04:577 -> 2076.00
10:49:04:587 -> 2016.00
10:49:04:598 -> 2037.00
10:49:04:608 -> 2037.00
10:49:04:629 -> 2052.00
10:49:04:618 -> 2065.00
10:49:04:639 -> 2104.00
10:49:04:649 -> 2042.00
10:49:04:660 -> 1965.00
10:49:04:670 -> 2024.00
