10:55:44:394 -> 2098.00
10:55:44:405 -> 1950.00
10:55:44:415 -> 2078.00
10:55:44:426 -> 1933.00
10:55:44:436 -> 2104.00
10:55:44:448 -> 1955.00
10:55:44:458 -> 2080.00
10:55:44:468 -> 1989.00
10:55:44:479 -> 2090.00
10:55:44:489 -> 1965.00
10:55:44:500 -> 2066.00
10:55:44:510 -> 1926.00
10:55:44:520 -> 2040.00
10:55:44:531 -> 1984.00
10:55:44:541 -> 2034.00
10:55:44:551 -> 2101.00
10:55:44:562 -> 2005.00
10:55:44:572 -> 2058.00
10:55:44:583 -> 1997.00
10:55:44:593 -> 2080.00
10:55:44:604 -> 1988.00
10:55:44:614 -> 2075.00
10:55:44:635 -> 1975.00
10:55:44:636 -> 2099.00
10:55:44:645 -> 1951.00
10:55:44:655 -> 2178.00
10:55:44:665 -> 1927.00
10:55:44:676 -> 2132.00
10:55:44:686 -> 1943.00
10:55:44:696 -> 2069.00
10:55:44:707 -> 1967.00
10:55:44:717 -> 2075.00
10:55:44:727 -> 1962.00
10:55:44:738 -> 2094.00
10:55:44:748 -> 1955.00
10:55:44:758 -> 2079.00
10:55:44:779 -> 1979.00
10:55:44:779 -> 2055.00
10:55:44:789 -> 1950.00
10:55:44:801 -> 2044.00
10:55:44:810 -> 1921.00
10:55:44:821 -> 2016.00
10:55:44:831 -> 2014.00
10:55:44:841 -> 2016.00
10:55:44:852 -> 2028.00
10:55:44:862 -> 2015.00
10:55:44:873 -> 2063.00
10:55:44:885 -> 2018.00
10:55:44:893 -> 2084.00
10:55:44:903 -> 1954.00
10:55:44:914 -> 2107.00
10:55:44:924 -> 1940.00
10:55:44:934 -> 2106.00
10:55:44:945 -> 1973.00
10:55:44:955 -> 2124.00
10:55:44:965 -> 1993.00
10:55:44:992 -> 2106.00
10:55:44:995 -> 1937.00
10:55:44:996 -> 2070.00
10:55:45:006 -> 1934.00
10:55:45:017 -> 2082.00
10:55:45:027 -> 1954.00
10:55:45:037 -> 2116.00
10:55:45:048 -> 1968.00
10:55:45:058 -> 2040.00
10:55:45:069 -> 2000.00
10:55:45:079 -> 2089.00
10:55:45:089 -> 2054.00
10:55:45:100 -> 2039.00
10:55:45:110 -> 1937.00
10:55:45:120 -> 1922.00
10:55:45:131 -> 2004.00
10:55:45:156 -> 2046.00
10:55:45:156 -> 2038.00
10:55:45:161 -> 2012.00
10:55:45:172 -> 2050.00
10:55:45:182 -> 2005.00
10:55:45:192 -> 2077.00
10:55:45:204 -> 1953.00
10:55:45:214 -> 2076.00
10:55:45:224 -> 1926.00
10:55:45:234 -> 2116.00
10:55:45:244 -> 1948.00
10:55:45:255 -> 2119.00
10:55:45:265 -> 1924.00
10:55:45:275 -> 2092.00
10:55:45:286 -> 1926.00
10:55:45:297 -> 2074.00
10:55:45:307 -> 1962.00
10:55:45:317 -> 2106.00
10:55:45:328 -> 1997.00
10:55:45:338 -> 2051.00
10:55:45:348 -> 1982.00
10:55:45:359 -> 2075.00
10:55:45:369 -> 1889.00
10:55:45:379 -> 2047.00
10:55:45:390 -> 1974.00
10:55:45:400 -> 2031.00
10:55:45:411 -> 2004.00
10:55:45:421 -> 2016.00
10:55:45:434 -> 2098.00
10:55:45:442 -> 1979.00
10:55:45:453 -> 2052.00
10:55:45:463 -> 1976.00
10:55:45:473 -> 2053.00
10:55:45:483 -> 1968.00
10:55:45:494 -> 2101.00
10:55:45:504 -> 1957.00
10:55:45:514 -> 2085.00
10:55:45:525 -> 1927.00
10:55:45:537 -> 2083.00
10:55:45:546 -> 1956.00
10:55:45:555 -> 2115.00
10:55:45:566 -> 1920.00
10:55:45:576 -> 2082.00
10:55:45:587 -> 1972.00
10:55:45:597 -> 2056.00
10:55:45:607 -> 2008.00
10:55:45:617 -> 2112.00
10:55:45:627 -> 1924.00
10:55:45:638 -> 2104.00
10:55:45:648 -> 1988.00
10:55:45:681 -> 2055.00
10:55:45:681 -> 2086.00
10:55:45:681 -> 2049.00
10:55:45:690 -> 1857.00
10:55:45:700 -> 2018.00
10:55:45:710 -> 1968.00
10:55:45:720 -> 2021.00
10:55:45:731 -> 1986.00
10:55:45:741 -> 1978.00
10:55:45:752 -> 2052.00
10:55:45:762 -> 1985.00
10:55:45:773 -> 2064.00
10:55:45:783 -> 1962.00
10:55:45:794 -> 2087.00
10:55:45:804 -> 1949.00
10:55:45:814 -> 2097.00
10:55:45:825 -> 1938.00
10:55:45:836 -> 2108.00
10:55:45:846 -> 1935.00
10:55:45:856 -> 2111.00
10:55:45:867 -> 1961.00
10:55:45:877 -> 2081.00
10:55:45:887 -> 1934.00
10:55:45:897 -> 2072.00
10:55:45:908 -> 1894.00
10:55:45:918 -> 2065.00
10:55:45:951 -> 1945.00
10:55:45:952 -> 2070.00
10:55:45:952 -> 1951.00
10:55:45:959 -> 2047.00
10:55:45:969 -> 1972.00
10:55:45:980 -> 2075.00
10:55:45:990 -> 2008.00
10:55:46:000 -> 2031.00
10:55:46:011 -> 2022.00
10:55:46:021 -> 1996.00
10:55:46:031 -> 2055.00
10:55:46:042 -> 2004.00
10:55:46:052 -> 2101.00
10:55:46:062 -> 1969.00
10:55:46:073 -> 2056.00
10:55:46:083 -> 1942.00
10:55:46:093 -> 2094.00
10:55:46:104 -> 1947.00
10:55:46:114 -> 2119.00
10:55:46:124 -> 1945.00
10:55:46:135 -> 2115.00
10:55:46:146 -> 1885.00
10:55:46:156 -> 2091.00
10:55:46:166 -> 1929.00
10:55:46:177 -> 2124.00
10:55:46:208 -> 1973.00
10:55:46:209 -> 2098.00
10:55:46:209 -> 1995.00
10:55:46:218 -> 2090.00
10:55:46:228 -> 1921.00
10:55:46:239 -> 2086.00
10:55:46:253 -> 1973.00
10:55:46:259 -> 2038.00
10:55:46:270 -> 2037.00
10:55:46:280 -> 2032.00
10:55:46:290 -> 2012.00
10:55:46:301 -> 2020.00
10:55:46:312 -> 2035.00
10:55:46:322 -> 1988.00
10:55:46:332 -> 2083.00
10:55:46:343 -> 1960.00
10:55:46:353 -> 2097.00
10:55:46:364 -> 2008.00
10:55:46:374 -> 2108.00
10:55:46:384 -> 1934.00
10:55:46:395 -> 2121.00
10:55:46:411 -> 1953.00
10:55:46:422 -> 1987.00
10:55:46:433 -> 2075.00
10:55:46:442 -> 1998.00
10:55:46:453 -> 2063.00
10:55:46:463 -> 1955.00
10:55:46:473 -> 2125.00
10:55:46:484 -> 1976.00
10:55:46:494 -> 2080.00
10:55:46:504 -> 1961.00
10:55:46:515 -> 2084.00
10:55:46:525 -> 1934.00
10:55:46:535 -> 2118.00
10:55:46:546 -> 1952.00
10:55:46:556 -> 2057.00
10:55:46:566 -> 1946.00
10:55:46:576 -> 2107.00
10:55:46:587 -> 1968.00
10:55:46:602 -> 2087.00
10:55:46:607 -> 1960.00
10:55:46:617 -> 2087.00
10:55:46:628 -> 2061.00
10:55:46:638 -> 2069.00
10:55:46:649 -> 1923.00
10:55:46:659 -> 2017.00
10:55:46:669 -> 1990.00
10:55:46:679 -> 2055.00
10:55:46:690 -> 2026.00
10:55:46:700 -> 2003.00
10:55:46:727 -> 2023.00
10:55:46:728 -> 1961.00
10:55:46:731 -> 2061.00
10:55:46:742 -> 2012.00
10:55:46:752 -> 2083.00
10:55:46:763 -> 1972.00
10:55:46:794 -> 2078.00
10:55:46:794 -> 1956.00
10:55:46:794 -> 2103.00
10:55:46:804 -> 1943.00
10:55:46:814 -> 2079.00
10:55:46:824 -> 1926.00
10:55:46:834 -> 2102.00
10:55:46:845 -> 1971.00
10:55:46:855 -> 2100.00
10:55:46:867 -> 1947.00
10:55:46:876 -> 2075.00
10:55:46:886 -> 1912.00
10:55:46:898 -> 2117.00
10:55:46:907 -> 1944.00
10:55:46:917 -> 2092.00
10:55:46:928 -> 1990.00
10:55:46:938 -> 2062.00
10:55:46:949 -> 1927.00
10:55:46:959 -> 2015.00
10:55:46:970 -> 2042.00
10:55:46:980 -> 2074.00
10:55:46:990 -> 2048.00
10:55:47:000 -> 2015.00
10:55:47:011 -> 2011.00
10:55:47:021 -> 1994.00
10:55:47:032 -> 2084.00
10:55:47:042 -> 1963.00
10:55:47:052 -> 2046.00
10:55:47:062 -> 1972.00
10:55:47:073 -> 2078.00
10:55:47:083 -> 1964.00
10:55:47:093 -> 2123.00
10:55:47:104 -> 1949.00
10:55:47:114 -> 2086.00
10:55:47:124 -> 1940.00
10:55:47:135 -> 2091.00
10:55:47:145 -> 1950.00
10:55:47:155 -> 2089.00
10:55:47:165 -> 1947.00
10:55:47:176 -> 2085.00
10:55:47:186 -> 1958.00
10:55:47:196 -> 2126.00
10:55:47:207 -> 1954.00
10:55:47:218 -> 2074.00
10:55:47:246 -> 1962.00
10:55:47:247 -> 2051.00
10:55:47:249 -> 1924.00
10:55:47:259 -> 2044.00
10:55:47:269 -> 2035.00
10:55:47:281 -> 2010.00
10:55:47:291 -> 2002.00
10:55:47:301 -> 1996.00
10:55:47:311 -> 2023.00
10:55:47:322 -> 1980.00
10:55:47:332 -> 2089.00
10:55:47:342 -> 1973.00
10:55:47:352 -> 2085.00
10:55:47:367 -> 1945.00
10:55:47:373 -> 2094.00
10:55:47:384 -> 1960.00
10:55:47:394 -> 2074.00
10:55:47:404 -> 1911.00
10:55:47:414 -> 2079.00
10:55:47:425 -> 1945.00
10:55:47:436 -> 2089.00
10:55:47:446 -> 1922.00
10:55:47:456 -> 2103.00
10:55:47:467 -> 1957.00
10:55:47:477 -> 2092.00
10:55:47:487 -> 1958.00
10:55:47:499 -> 2106.00
10:55:47:509 -> 1985.00
10:55:47:519 -> 2014.00
10:55:47:530 -> 2006.00
10:55:47:540 -> 2018.00
10:55:47:552 -> 2027.00
10:55:47:561 -> 2007.00
10:55:47:571 -> 2035.00
10:55:47:581 -> 1968.00
10:55:47:592 -> 2068.00
10:55:47:602 -> 1940.00
10:55:47:612 -> 2071.00
10:55:47:623 -> 1974.00
10:55:47:634 -> 2077.00
10:55:47:644 -> 1976.00
10:55:47:656 -> 2102.00
10:55:47:666 -> 1956.00
10:55:47:677 -> 2105.00
10:55:47:687 -> 1974.00
10:55:47:698 -> 2068.00
10:55:47:708 -> 1897.00
10:55:47:719 -> 2084.00
10:55:47:729 -> 1969.00
10:55:47:740 -> 2028.00
10:55:47:765 -> 2053.00
10:55:47:766 -> 1997.00
10:55:47:771 -> 2021.00
10:55:47:782 -> 1994.00
10:55:47:793 -> 2104.00
10:55:47:803 -> 1959.00
10:55:47:813 -> 2106.00
10:55:47:823 -> 1914.00
10:55:47:834 -> 2159.00
10:55:47:844 -> 1921.00
10:55:47:873 -> 2092.00
10:55:47:873 -> 1925.00
10:55:47:875 -> 2100.00
10:55:47:885 -> 1951.00
10:55:47:895 -> 2100.00
10:55:47:906 -> 1956.00
10:55:47:916 -> 2102.00
10:55:47:926 -> 1971.00
10:55:47:936 -> 2082.00
10:55:47:948 -> 1971.00
10:55:47:957 -> 2085.00
10:55:47:968 -> 2092.00
10:55:47:978 -> 2069.00
10:55:47:988 -> 1885.00
10:55:47:998 -> 2029.00
10:55:48:009 -> 1951.00
10:55:48:019 -> 2034.00
10:55:48:030 -> 1999.00
10:55:48:040 -> 2010.00
10:55:48:050 -> 2038.00
10:55:48:061 -> 1957.00
10:55:48:071 -> 2080.00
10:55:48:081 -> 1975.00
10:55:48:091 -> 2073.00
10:55:48:102 -> 1984.00
10:55:48:112 -> 2100.00
10:55:48:122 -> 1972.00
10:55:48:133 -> 2111.00
10:55:48:143 -> 1938.00
10:55:48:154 -> 2101.00
10:55:48:164 -> 1969.00
10:55:48:174 -> 2123.00
10:55:48:185 -> 1962.00
10:55:48:196 -> 2034.00
10:55:48:206 -> 1974.00
10:55:48:216 -> 2095.00
10:55:48:227 -> 1981.00
10:55:48:236 -> 2123.00
10:55:48:251 -> 1958.00
10:55:48:258 -> 2098.00
10:55:48:279 -> 2002.00
10:55:48:280 -> 2094.00
10:55:48:288 -> 1925.00
10:55:48:299 -> 2002.00
10:55:48:309 -> 2023.00
10:55:48:319 -> 2042.00
10:55:48:330 -> 2103.00
10:55:48:340 -> 1991.00
10:55:48:350 -> 2031.00
10:55:48:362 -> 1984.00
10:55:48:371 -> 2071.00
10:55:48:382 -> 2007.00
10:55:48:392 -> 2062.00
10:55:48:402 -> 1953.00
10:55:48:413 -> 2090.00
10:55:48:423 -> 1961.00
10:55:48:434 -> 2107.00
10:55:48:444 -> 1920.00
10:55:48:455 -> 2061.00
10:55:48:466 -> 1941.00
10:55:48:476 -> 2104.00
10:55:48:487 -> 2005.00
10:55:48:497 -> 2166.00
10:55:48:507 -> 1860.00
10:55:48:519 -> 2016.00
10:55:48:528 -> 2029.00
10:55:48:539 -> 2161.00
10:55:48:552 -> 2065.00
10:55:48:560 -> 1951.00
10:55:48:570 -> 2173.00
10:55:48:581 -> 1974.00
10:55:48:591 -> 2097.00
10:55:48:601 -> 1781.00
10:55:48:612 -> 2149.00
10:55:48:622 -> 1965.00
10:55:48:633 -> 2012.00
10:55:48:643 -> 1948.00
10:55:48:653 -> 1890.00
10:55:48:664 -> 2163.00
10:55:48:674 -> 2116.00
10:55:48:684 -> 1803.00
10:55:48:695 -> 2109.00
10:55:48:706 -> 2079.00
10:55:48:748 -> 2096.00
10:55:48:749 -> 1998.00
10:55:48:749 -> 2148.00
10:55:48:749 -> 1803.00
10:55:48:757 -> 2129.00
10:55:48:767 -> 2050.00
10:55:48:778 -> 1957.00
10:55:48:794 -> 1905.00
10:55:48:798 -> 1989.00
10:55:48:809 -> 2105.00
10:55:48:819 -> 2064.00
10:55:48:830 -> 1803.00
10:55:48:839 -> 1871.00
10:55:48:850 -> 2010.00
10:55:48:860 -> 1846.00
10:55:48:870 -> 1889.00
10:55:48:881 -> 1901.00
10:55:48:891 -> 2215.00
10:55:48:902 -> 1800.00
10:55:48:912 -> 2202.00
10:55:48:922 -> 1982.00
10:55:48:933 -> 1940.00
10:55:48:943 -> 2059.00
10:55:48:953 -> 2016.00
10:55:48:963 -> 2172.00
10:55:48:974 -> 2255.00
10:55:48:985 -> 1924.00
10:55:48:995 -> 2020.00
10:55:49:005 -> 1808.00
10:55:49:016 -> 2179.00
10:55:49:026 -> 1850.00
10:55:49:036 -> 1945.00
10:55:49:047 -> 1858.00
10:55:49:057 -> 2059.00
10:55:49:068 -> 1954.00
10:55:49:078 -> 2072.00
10:55:49:088 -> 2012.00
10:55:49:102 -> 2069.00
10:55:49:109 -> 1943.00
10:55:49:119 -> 2057.00
10:55:49:130 -> 1794.00
10:55:49:140 -> 1969.00
10:55:49:151 -> 2128.00
10:55:49:161 -> 2049.00
10:55:49:171 -> 2128.00
10:55:49:182 -> 1966.00
10:55:49:192 -> 2009.00
10:55:49:202 -> 1629.00
10:55:49:213 -> 2022.00
10:55:49:223 -> 1835.00
10:55:49:234 -> 2187.00
10:55:49:244 -> 2036.00
10:55:49:255 -> 2083.00
10:55:49:270 -> 1921.00
10:55:49:277 -> 2060.00
10:55:49:287 -> 2130.00
10:55:49:314 -> 1913.00
10:55:49:315 -> 2067.00
10:55:49:318 -> 2037.00
10:55:49:328 -> 2051.00
10:55:49:339 -> 2063.00
10:55:49:349 -> 2039.00
10:55:49:360 -> 1821.00
10:55:49:370 -> 2039.00
10:55:49:381 -> 2039.00
10:55:49:391 -> 2044.00
10:55:49:401 -> 1876.00
10:55:49:412 -> 2052.00
10:55:49:422 -> 2008.00
10:55:49:433 -> 2084.00
10:55:49:443 -> 1935.00
10:55:49:453 -> 2143.00
10:55:49:463 -> 1957.00
10:55:49:474 -> 2055.00
10:55:49:484 -> 1963.00
10:55:49:495 -> 2136.00
10:55:49:505 -> 1969.00
10:55:49:515 -> 2098.00
10:55:49:526 -> 1994.00
10:55:49:536 -> 2088.00
10:55:49:546 -> 1946.00
10:55:49:557 -> 2107.00
10:55:49:567 -> 1979.00
10:55:49:577 -> 2057.00
10:55:49:588 -> 1991.00
10:55:49:598 -> 2042.00
10:55:49:608 -> 1957.00
10:55:49:619 -> 2036.00
10:55:49:629 -> 2020.00
10:55:49:639 -> 2015.00
10:55:49:650 -> 1986.00
10:55:49:683 -> 2034.00
10:55:49:683 -> 2043.00
10:55:49:687 -> 2000.00
10:55:49:697 -> 2094.00
10:55:49:708 -> 1959.00
10:55:49:718 -> 2033.00
10:55:49:729 -> 1985.00
10:55:49:739 -> 2066.00
10:55:49:749 -> 2002.00
10:55:49:760 -> 1951.00
10:55:49:770 -> 2043.00
10:55:49:780 -> 1998.00
10:55:49:790 -> 2029.00
10:55:49:801 -> 1914.00
10:55:49:811 -> 2102.00
10:55:49:835 -> 1963.00
10:55:49:836 -> 2058.00
10:55:49:842 -> 1968.00
10:55:49:852 -> 2082.00
10:55:49:863 -> 1939.00
10:55:49:874 -> 2141.00
10:55:49:884 -> 1919.00
10:55:49:894 -> 2131.00
10:55:49:905 -> 1900.00
10:55:49:916 -> 2152.00
10:55:49:926 -> 1923.00
10:55:49:939 -> 2081.00
10:55:49:947 -> 2001.00
10:55:49:958 -> 2076.00
10:55:49:968 -> 2025.00
10:55:49:978 -> 2066.00
10:55:49:988 -> 1949.00
10:55:50:000 -> 2057.00
10:55:50:011 -> 2058.00
10:55:50:021 -> 1970.00
10:55:50:031 -> 2076.00
10:55:50:041 -> 1916.00
10:55:50:052 -> 2111.00
10:55:50:062 -> 1933.00
10:55:50:073 -> 2120.00
10:55:50:083 -> 1955.00
10:55:50:093 -> 2082.00
10:55:50:105 -> 1960.00
10:55:50:116 -> 2115.00
10:55:50:126 -> 1955.00
10:55:50:136 -> 2084.00
10:55:50:147 -> 1992.00
10:55:50:157 -> 2066.00
10:55:50:167 -> 2004.00
10:55:50:178 -> 2117.00
10:55:50:190 -> 1972.00
10:55:50:200 -> 2017.00
10:55:50:210 -> 2062.00
10:55:50:224 -> 1962.00
10:55:50:231 -> 2043.00
10:55:50:241 -> 1974.00
10:55:50:252 -> 2144.00
10:55:50:262 -> 1896.00
10:55:50:273 -> 2030.00
10:55:50:283 -> 1951.00
10:55:50:293 -> 2030.00
10:55:50:304 -> 1950.00
10:55:50:314 -> 2101.00
10:55:50:325 -> 1981.00
10:55:50:349 -> 2093.00
10:55:50:350 -> 1969.00
10:55:50:356 -> 2101.00
10:55:50:367 -> 1945.00
10:55:50:378 -> 2139.00
10:55:50:392 -> 1875.00
10:55:50:400 -> 2059.00
10:55:50:410 -> 2063.00
10:55:50:420 -> 1980.00
10:55:50:431 -> 2103.00
10:55:50:441 -> 1910.00
10:55:50:452 -> 2117.00
10:55:50:462 -> 1978.00
10:55:50:473 -> 2095.00
10:55:50:483 -> 1937.00
10:55:50:516 -> 2016.00
10:55:50:516 -> 1904.00
10:55:50:516 -> 2106.00
10:55:50:525 -> 1980.00
10:55:50:535 -> 2046.00
10:55:50:547 -> 1979.00
10:55:50:555 -> 2104.00
10:55:50:566 -> 1977.00
10:55:50:576 -> 2132.00
10:55:50:586 -> 1963.00
10:55:50:598 -> 2031.00
10:55:50:608 -> 1995.00
10:55:50:618 -> 2054.00
10:55:50:629 -> 1981.00
10:55:50:639 -> 2031.00
10:55:50:649 -> 2053.00
10:55:50:661 -> 1991.00
10:55:50:671 -> 2046.00
10:55:50:681 -> 1975.00
10:55:50:691 -> 2051.00
10:55:50:701 -> 1929.00
10:55:50:712 -> 2140.00
10:55:50:722 -> 1943.00
10:55:50:732 -> 2119.00
10:55:50:743 -> 1942.00
10:55:50:753 -> 2090.00
10:55:50:764 -> 1961.00
10:55:50:774 -> 2107.00
10:55:50:784 -> 1948.00
10:55:50:795 -> 2095.00
10:55:50:805 -> 1988.00
10:55:50:816 -> 2054.00
10:55:50:826 -> 1958.00
10:55:50:836 -> 2132.00
10:55:50:847 -> 2047.00
10:55:50:868 -> 2063.00
10:55:50:868 -> 2006.00
10:55:50:877 -> 2054.00
10:55:50:888 -> 2040.00
10:55:50:898 -> 2061.00
10:55:50:908 -> 1966.00
10:55:50:919 -> 1979.00
10:55:50:929 -> 2082.00
10:55:50:940 -> 1940.00
10:55:50:950 -> 2109.00
10:55:50:961 -> 1923.00
10:55:50:971 -> 2152.00
10:55:50:983 -> 1937.00
10:55:50:993 -> 2123.00
10:55:51:003 -> 1939.00
10:55:51:013 -> 2131.00
10:55:51:024 -> 1962.00
10:55:51:034 -> 2172.00
10:55:51:045 -> 1969.00
10:55:51:057 -> 2087.00
10:55:51:066 -> 1945.00
10:55:51:077 -> 2098.00
10:55:51:087 -> 1981.00
10:55:51:097 -> 2081.00
10:55:51:107 -> 2015.00
10:55:51:118 -> 2034.00
10:55:51:128 -> 1924.00
10:55:51:138 -> 2001.00
10:55:51:149 -> 2003.00
10:55:51:159 -> 1987.00
10:55:51:169 -> 2054.00
10:55:51:179 -> 1997.00
10:55:51:190 -> 2087.00
10:55:51:200 -> 1975.00
10:55:51:210 -> 2068.00
10:55:51:221 -> 1949.00
10:55:51:231 -> 2096.00
10:55:51:241 -> 1958.00
10:55:51:252 -> 2137.00
10:55:51:263 -> 1954.00
10:55:51:273 -> 2113.00
10:55:51:283 -> 1925.00
10:55:51:293 -> 2144.00
10:55:51:304 -> 1947.00
10:55:51:314 -> 2097.00
10:55:51:324 -> 1934.00
10:55:51:335 -> 2096.00
10:55:51:345 -> 1955.00
10:55:51:355 -> 2030.00
10:55:51:391 -> 1966.00
10:55:51:392 -> 2039.00
10:55:51:392 -> 1985.00
10:55:51:398 -> 2028.00
10:55:51:408 -> 1917.00
10:55:51:418 -> 2039.00
10:55:51:428 -> 2022.00
10:55:51:439 -> 2017.00
10:55:51:449 -> 2027.00
10:55:51:460 -> 2004.00
10:55:51:471 -> 2057.00
10:55:51:481 -> 1935.00
10:55:51:491 -> 2099.00
10:55:51:502 -> 1961.00
10:55:51:531 -> 2093.00
10:55:51:531 -> 1909.00
10:55:51:535 -> 2107.00
10:55:51:546 -> 1963.00
10:55:51:556 -> 2115.00
10:55:51:567 -> 1933.00
10:55:51:577 -> 2061.00
10:55:51:587 -> 2104.00
10:55:51:598 -> 2043.00
10:55:51:608 -> 1896.00
10:55:51:618 -> 2021.00
10:55:51:629 -> 1996.00
10:55:51:639 -> 1999.00
10:55:51:649 -> 2057.00
10:55:51:659 -> 1946.00
10:55:51:670 -> 2086.00
10:55:51:680 -> 1946.00
10:55:51:691 -> 2051.00
10:55:51:703 -> 1958.00
10:55:51:712 -> 2103.00
10:55:51:723 -> 1938.00
10:55:51:733 -> 2004.00
10:55:51:743 -> 1955.00
10:55:51:753 -> 2146.00
10:55:51:765 -> 1979.00
10:55:51:776 -> 2123.00
10:55:51:786 -> 1939.00
10:55:51:796 -> 2071.00
10:55:51:807 -> 1975.00
10:55:51:817 -> 2077.00
10:55:51:827 -> 1903.00
10:55:51:839 -> 2005.00
10:55:51:848 -> 1975.00
10:55:51:859 -> 2007.00
10:55:51:869 -> 2063.00
10:55:51:879 -> 1986.00
10:55:51:890 -> 2057.00
10:55:51:914 -> 1988.00
10:55:51:915 -> 2053.00
10:55:51:921 -> 1929.00
10:55:51:932 -> 2093.00
10:55:51:942 -> 1974.00
10:55:51:952 -> 2138.00
10:55:51:962 -> 1919.00
10:55:51:973 -> 2123.00
10:55:51:983 -> 1924.00
10:55:51:993 -> 2124.00
10:55:52:004 -> 1906.00
10:55:52:014 -> 2126.00
10:55:52:025 -> 1964.00
10:55:52:036 -> 2116.00
10:55:52:045 -> 1954.00
10:55:52:055 -> 2118.00
10:55:52:066 -> 1950.00
10:55:52:076 -> 2083.00
10:55:52:087 -> 1976.00
10:55:52:097 -> 2073.00
10:55:52:109 -> 1912.00
10:55:52:120 -> 2004.00
10:55:52:129 -> 2048.00
10:55:52:140 -> 2008.00
10:55:52:150 -> 2040.00
10:55:52:160 -> 1954.00
10:55:52:174 -> 2090.00
10:55:52:183 -> 1936.00
10:55:52:193 -> 2095.00
10:55:52:203 -> 1966.00
10:55:52:213 -> 2148.00
10:55:52:224 -> 1944.00
10:55:52:234 -> 2143.00
10:55:52:245 -> 1913.00
10:55:52:255 -> 2132.00
10:55:52:265 -> 1887.00
10:55:52:276 -> 2060.00
10:55:52:286 -> 1912.00
10:55:52:297 -> 2134.00
10:55:52:307 -> 1984.00
10:55:52:317 -> 2111.00
10:55:52:329 -> 2030.00
10:55:52:361 -> 1925.00
10:55:52:361 -> 2032.00
10:55:52:361 -> 2170.00
10:55:52:369 -> 1953.00
10:55:52:379 -> 1886.00
10:55:52:390 -> 1985.00
10:55:52:401 -> 2154.00
10:55:52:411 -> 1893.00
10:55:52:437 -> 2049.00
10:55:52:438 -> 2073.00
10:55:52:442 -> 1996.00
10:55:52:452 -> 2136.00
10:55:52:463 -> 1938.00
10:55:52:473 -> 2067.00
10:55:52:483 -> 2014.00
10:55:52:494 -> 2152.00
10:55:52:506 -> 1967.00
10:55:52:515 -> 2190.00
10:55:52:525 -> 1826.00
10:55:52:536 -> 2340.00
10:55:52:546 -> 1864.00
10:55:52:556 -> 2061.00
10:55:52:567 -> 1985.00
10:55:52:577 -> 2064.00
10:55:52:587 -> 1953.00
10:55:52:598 -> 1795.00
10:55:52:608 -> 2064.00
10:55:52:618 -> 1941.00
10:55:52:629 -> 2058.00
10:55:52:640 -> 2019.00
10:55:52:650 -> 2096.00
10:55:52:660 -> 2089.00
10:55:52:670 -> 2490.00
10:55:52:681 -> 1827.00
10:55:52:691 -> 2093.00
10:55:52:701 -> 1808.00
10:55:52:712 -> 2140.00
10:55:52:722 -> 1958.00
10:55:52:732 -> 2152.00
10:55:52:742 -> 1955.00
10:55:52:753 -> 1999.00
10:55:52:763 -> 1981.00
10:55:52:773 -> 1804.00
10:55:52:788 -> 2022.00
10:55:52:794 -> 2067.00
10:55:52:804 -> 1965.00
10:55:52:815 -> 2174.00
10:55:52:825 -> 1893.00
10:55:52:836 -> 1953.00
10:55:52:846 -> 1911.00
10:55:52:856 -> 1830.00
10:55:52:866 -> 1926.00
10:55:52:877 -> 2007.00
10:55:52:887 -> 2093.00
10:55:52:897 -> 2120.00
10:55:52:908 -> 2055.00
10:55:52:918 -> 1990.00
10:55:52:929 -> 2094.00
10:55:52:956 -> 2020.00
10:55:52:957 -> 2015.00
10:55:52:959 -> 2008.00
10:55:52:970 -> 1993.00
10:55:52:981 -> 1899.00
10:55:52:991 -> 2134.00
10:55:53:001 -> 1893.00
10:55:53:012 -> 2192.00
10:55:53:022 -> 2068.00
10:55:53:032 -> 2089.00
10:55:53:044 -> 2051.00
10:55:53:054 -> 2035.00
10:55:53:064 -> 2108.00
10:55:53:075 -> 2044.00
10:55:53:085 -> 1909.00
10:55:53:095 -> 2145.00
10:55:53:106 -> 1987.00
10:55:53:116 -> 2124.00
10:55:53:126 -> 1967.00
10:55:53:137 -> 2012.00
10:55:53:147 -> 2085.00
10:55:53:173 -> 2081.00
10:55:53:183 -> 1987.00
10:55:53:183 -> 2035.00
10:55:53:188 -> 2076.00
10:55:53:198 -> 2094.00
10:55:53:209 -> 2053.00
10:55:53:219 -> 1987.00
10:55:53:229 -> 1985.00
10:55:53:240 -> 2019.00
10:55:53:250 -> 2095.00
10:55:53:260 -> 1985.00
10:55:53:271 -> 2048.00
10:55:53:281 -> 1980.00
10:55:53:292 -> 2099.00
10:55:53:302 -> 2031.00
10:55:53:312 -> 2114.00
10:55:53:322 -> 1990.00
10:55:53:333 -> 2081.00
10:55:53:343 -> 1915.00
10:55:53:353 -> 2115.00
10:55:53:364 -> 1913.00
10:55:53:374 -> 2112.00
10:55:53:385 -> 1992.00
10:55:53:395 -> 2113.00
10:55:53:405 -> 1919.00
10:55:53:416 -> 2124.00
10:55:53:426 -> 1952.00
10:55:53:437 -> 2082.00
10:55:53:447 -> 1970.00
10:55:53:481 -> 2024.00
10:55:53:481 -> 1874.00
10:55:53:481 -> 2042.00
10:55:53:488 -> 1952.00
10:55:53:499 -> 2042.00
10:55:53:509 -> 2038.00
10:55:53:522 -> 1999.00
10:55:53:530 -> 2024.00
10:55:53:540 -> 1997.00
10:55:53:551 -> 2089.00
10:55:53:561 -> 1861.00
10:55:53:572 -> 2124.00
10:55:53:582 -> 1909.00
10:55:53:592 -> 2127.00
10:55:53:603 -> 1868.00
10:55:53:613 -> 2106.00
10:55:53:623 -> 1869.00
10:55:53:634 -> 2135.00
10:55:53:644 -> 1873.00
10:55:53:655 -> 2126.00
10:55:53:665 -> 1920.00
10:55:53:675 -> 2092.00
10:55:53:685 -> 1958.00
10:55:53:696 -> 2104.00
10:55:53:706 -> 1960.00
10:55:53:717 -> 2093.00
10:55:53:727 -> 1941.00
10:55:53:738 -> 2058.00
10:55:53:748 -> 1961.00
10:55:53:758 -> 2051.00
10:55:53:769 -> 1952.00
10:55:53:779 -> 2008.00
10:55:53:789 -> 2045.00
10:55:53:801 -> 1988.00
10:55:53:811 -> 2023.00
10:55:53:821 -> 1980.00
10:55:53:834 -> 2112.00
10:55:53:842 -> 1958.00
10:55:53:852 -> 2080.00
10:55:53:862 -> 1983.00
10:55:53:872 -> 2057.00
10:55:53:883 -> 1882.00
10:55:53:893 -> 2166.00
10:55:53:903 -> 1887.00
10:55:53:914 -> 2127.00
10:55:53:924 -> 1976.00
10:55:53:935 -> 2107.00
10:55:53:945 -> 1926.00
10:55:53:955 -> 2118.00
10:55:53:965 -> 1975.00
10:55:53:976 -> 2101.00
10:55:54:003 -> 1952.00
10:55:54:004 -> 2110.00
10:55:54:006 -> 1966.00
10:55:54:017 -> 2049.00
10:55:54:027 -> 1888.00
10:55:54:038 -> 1993.00
10:55:54:048 -> 1963.00
10:55:54:059 -> 2034.00
10:55:54:070 -> 2071.00
10:55:54:080 -> 1987.00
10:55:54:091 -> 2093.00
10:55:54:101 -> 1914.00
10:55:54:129 -> 2123.00
10:55:54:130 -> 1933.00
10:55:54:132 -> 2166.00
10:55:54:142 -> 1932.00
10:55:54:152 -> 2092.00
10:55:54:163 -> 1873.00
10:55:54:175 -> 2155.00
10:55:54:183 -> 1893.00
10:55:54:193 -> 2139.00
10:55:54:204 -> 1949.00
10:55:54:214 -> 2108.00
10:55:54:224 -> 1935.00
10:55:54:235 -> 2129.00
10:55:54:245 -> 1935.00
10:55:54:256 -> 2114.00
10:55:54:266 -> 1892.00
10:55:54:276 -> 2026.00
10:55:54:286 -> 1999.00
10:55:54:296 -> 2080.00
10:55:54:307 -> 1957.00
10:55:54:317 -> 2066.00
10:55:54:327 -> 1939.00
10:55:54:338 -> 2001.00
10:55:54:348 -> 1994.00
10:55:54:358 -> 2048.00
10:55:54:369 -> 2086.00
10:55:54:379 -> 1965.00
10:55:54:389 -> 2079.00
10:55:54:399 -> 1955.00
10:55:54:410 -> 2066.00
10:55:54:420 -> 1954.00
10:55:54:430 -> 2093.00
10:55:54:441 -> 1950.00
10:55:54:451 -> 2097.00
10:55:54:461 -> 1943.00
10:55:54:473 -> 2119.00
10:55:54:483 -> 1936.00
10:55:54:493 -> 2149.00
10:55:54:521 -> 1862.00
10:55:54:522 -> 2137.00
10:55:54:524 -> 1935.00
10:55:54:534 -> 2091.00
10:55:54:544 -> 1960.00
10:55:54:555 -> 2096.00
10:55:54:565 -> 1945.00
10:55:54:576 -> 2099.00
10:55:54:588 -> 1975.00
10:55:54:596 -> 2087.00
10:55:54:607 -> 2032.00
10:55:54:617 -> 2064.00
10:55:54:627 -> 1901.00
10:55:54:637 -> 2035.00
10:55:54:648 -> 1930.00
10:55:54:658 -> 2066.00
10:55:54:668 -> 2014.00
10:55:54:678 -> 2003.00
10:55:54:689 -> 2048.00
10:55:54:699 -> 1994.00
10:55:54:710 -> 2117.00
10:55:54:720 -> 1997.00
10:55:54:730 -> 2074.00
10:55:54:741 -> 1895.00
10:55:54:751 -> 2104.00
10:55:54:761 -> 1924.00
10:55:54:771 -> 2084.00
10:55:54:782 -> 1905.00
10:55:54:792 -> 2120.00
10:55:54:805 -> 1945.00
10:55:54:815 -> 2172.00
10:55:54:825 -> 1935.00
10:55:54:836 -> 2098.00
10:55:54:846 -> 1953.00
10:55:54:858 -> 2063.00
10:55:54:868 -> 1970.00
10:55:54:879 -> 2041.00
10:55:54:889 -> 2063.00
10:55:54:904 -> 2004.00
10:55:54:909 -> 2095.00
10:55:54:920 -> 1898.00
10:55:54:930 -> 2101.00
10:55:54:940 -> 1936.00
10:55:54:969 -> 2089.00
10:55:54:969 -> 1936.00
10:55:54:971 -> 2118.00
10:55:54:981 -> 1942.00
10:55:54:992 -> 2121.00
10:55:55:002 -> 1886.00
10:55:55:013 -> 2124.00
10:55:55:045 -> 1916.00
10:55:55:046 -> 2095.00
10:55:55:046 -> 1939.00
10:55:55:054 -> 2108.00
10:55:55:064 -> 2022.00
10:55:55:075 -> 2112.00
10:55:55:086 -> 1957.00
10:55:55:096 -> 2070.00
10:55:55:106 -> 1921.00
10:55:55:120 -> 2039.00
10:55:55:127 -> 2085.00
10:55:55:137 -> 2033.00
10:55:55:147 -> 1897.00
10:55:55:158 -> 2014.00
10:55:55:168 -> 2009.00
10:55:55:179 -> 2021.00
10:55:55:189 -> 2026.00
10:55:55:199 -> 1977.00
10:55:55:210 -> 2062.00
10:55:55:220 -> 1967.00
10:55:55:230 -> 2081.00
10:55:55:240 -> 1964.00
10:55:55:251 -> 2112.00
10:55:55:261 -> 1934.00
10:55:55:271 -> 2112.00
10:55:55:282 -> 1923.00
10:55:55:293 -> 2093.00
10:55:55:305 -> 1909.00
10:55:55:314 -> 2153.00
10:55:55:324 -> 1929.00
10:55:55:334 -> 2150.00
10:55:55:345 -> 1996.00
10:55:55:355 -> 2081.00
10:55:55:365 -> 1957.00
10:55:55:376 -> 2107.00
10:55:55:386 -> 1972.00
10:55:55:396 -> 2070.00
10:55:55:407 -> 2007.00
10:55:55:420 -> 1888.00
10:55:55:430 -> 2083.00
10:55:55:441 -> 1941.00
10:55:55:456 -> 2133.00
10:55:55:463 -> 1911.00
10:55:55:473 -> 2210.00
10:55:55:483 -> 1927.00
10:55:55:494 -> 2114.00
10:55:55:504 -> 1934.00
10:55:55:514 -> 2096.00
10:55:55:526 -> 1953.00
10:55:55:536 -> 2064.00
10:55:55:560 -> 2062.00
10:55:55:561 -> 2041.00
10:55:55:568 -> 1916.00
10:55:55:578 -> 2035.00
10:55:55:588 -> 1998.00
10:55:55:598 -> 2025.00
10:55:55:609 -> 2013.00
10:55:55:620 -> 1981.00
10:55:55:630 -> 2079.00
10:55:55:640 -> 1946.00
10:55:55:653 -> 2063.00
10:55:55:660 -> 1973.00
10:55:55:671 -> 2099.00
10:55:55:681 -> 1990.00
10:55:55:691 -> 2146.00
10:55:55:702 -> 1917.00
10:55:55:713 -> 2141.00
10:55:55:723 -> 1976.00
10:55:55:733 -> 2124.00
10:55:55:744 -> 1882.00
10:55:55:781 -> 2036.00
10:55:55:781 -> 1909.00
10:55:55:781 -> 2107.00
10:55:55:784 -> 1963.00
10:55:55:795 -> 1917.00
10:55:55:805 -> 1890.00
10:55:55:816 -> 2241.00
10:55:55:826 -> 1946.00
10:55:55:838 -> 2049.00
10:55:55:846 -> 1973.00
10:55:55:857 -> 2190.00
10:55:55:868 -> 1899.00
10:55:55:877 -> 2032.00
10:55:55:888 -> 2207.00
10:55:55:899 -> 2058.00
10:55:55:909 -> 2227.00
10:55:55:919 -> 1592.00
10:55:55:930 -> 1838.00
10:55:55:940 -> 1943.00
10:55:55:950 -> 2425.00
10:55:55:961 -> 2033.00
10:55:55:971 -> 2244.00
10:55:55:981 -> 1608.00
10:55:55:992 -> 2097.00
10:55:56:002 -> 2001.00
10:55:56:012 -> 2288.00
10:55:56:022 -> 1929.00
10:55:56:033 -> 2396.00
10:55:56:044 -> 1839.00
10:55:56:054 -> 2136.00
10:55:56:078 -> 1911.00
10:55:56:079 -> 2296.00
10:55:56:085 -> 1799.00
10:55:56:095 -> 2155.00
10:55:56:105 -> 2004.00
10:55:56:116 -> 1995.00
10:55:56:126 -> 1952.00
10:55:56:136 -> 2088.00
10:55:56:147 -> 2006.00
10:55:56:157 -> 2022.00
10:55:56:168 -> 1902.00
10:55:56:178 -> 1943.00
10:55:56:188 -> 1916.00
10:55:56:199 -> 2183.00
10:55:56:209 -> 2069.00
10:55:56:219 -> 1885.00
10:55:56:230 -> 1953.00
10:55:56:240 -> 1958.00
10:55:56:250 -> 2261.00
10:55:56:261 -> 1917.00
10:55:56:271 -> 2075.00
10:55:56:282 -> 1835.00
10:55:56:292 -> 2061.00
10:55:56:303 -> 1906.00
10:55:56:313 -> 2023.00
10:55:56:324 -> 2106.00
10:55:56:338 -> 2142.00
10:55:56:344 -> 2025.00
10:55:56:355 -> 2139.00
10:55:56:365 -> 2052.00
10:55:56:375 -> 1918.00
10:55:56:386 -> 2051.00
10:55:56:396 -> 1954.00
10:55:56:406 -> 2043.00
10:55:56:417 -> 2057.00
10:55:56:427 -> 1911.00
10:55:56:437 -> 2092.00
10:55:56:448 -> 2090.00
10:55:56:458 -> 2089.00
10:55:56:468 -> 1980.00
10:55:56:479 -> 1948.00
10:55:56:489 -> 2161.00
10:55:56:499 -> 1614.00
10:55:56:510 -> 2181.00
10:55:56:520 -> 1897.00
10:55:56:530 -> 1942.00
10:55:56:541 -> 2058.00
10:55:56:572 -> 2032.00
10:55:56:572 -> 1944.00
10:55:56:572 -> 2241.00
10:55:56:599 -> 1723.00
10:55:56:600 -> 2198.00
10:55:56:602 -> 2003.00
10:55:56:613 -> 2141.00
10:55:56:623 -> 1765.00
10:55:56:634 -> 2237.00
10:55:56:645 -> 1876.00
10:55:56:655 -> 2040.00
10:55:56:665 -> 2206.00
10:55:56:676 -> 2013.00
10:55:56:686 -> 1993.00
10:55:56:696 -> 1998.00
10:55:56:706 -> 1951.00
10:55:56:717 -> 2064.00
10:55:56:727 -> 1959.00
10:55:56:738 -> 1980.00
10:55:56:748 -> 2038.00
10:55:56:759 -> 1957.00
10:55:56:769 -> 2024.00
10:55:56:779 -> 1997.00
10:55:56:790 -> 2068.00
10:55:56:801 -> 1941.00
10:55:56:812 -> 2141.00
10:55:56:821 -> 1857.00
10:55:56:832 -> 2091.00
10:55:56:842 -> 1912.00
10:55:56:852 -> 2144.00
10:55:56:863 -> 1912.00
10:55:56:873 -> 2125.00
10:55:56:884 -> 1934.00
10:55:56:894 -> 2176.00
10:55:56:904 -> 1959.00
10:55:56:915 -> 2069.00
10:55:56:925 -> 1957.00
10:55:56:935 -> 2085.00
10:55:56:946 -> 1934.00
10:55:56:956 -> 2056.00
10:55:56:966 -> 1947.00
10:55:56:977 -> 2076.00
10:55:56:987 -> 1936.00
10:55:56:997 -> 2049.00
10:55:57:009 -> 1999.00
10:55:57:018 -> 2026.00
10:55:57:028 -> 2008.00
10:55:57:039 -> 2041.00
10:55:57:049 -> 2044.00
10:55:57:060 -> 1983.00
10:55:57:070 -> 2091.00
10:55:57:081 -> 1954.00
10:55:57:091 -> 2119.00
10:55:57:116 -> 1944.00
10:55:57:116 -> 2154.00
10:55:57:122 -> 1914.00
10:55:57:132 -> 2123.00
10:55:57:143 -> 1916.00
10:55:57:155 -> 2129.00
10:55:57:163 -> 1908.00
10:55:57:174 -> 2176.00
10:55:57:184 -> 1915.00
10:55:57:194 -> 2140.00
10:55:57:204 -> 1860.00
10:55:57:215 -> 2145.00
10:55:57:226 -> 2050.00
10:55:57:236 -> 2084.00
10:55:57:246 -> 1865.00
10:55:57:257 -> 2100.00
10:55:57:267 -> 1941.00
10:55:57:278 -> 2057.00
10:55:57:288 -> 1962.00
10:55:57:298 -> 2068.00
10:55:57:309 -> 2022.00
10:55:57:323 -> 2092.00
10:55:57:330 -> 2035.00
10:55:57:340 -> 1944.00
10:55:57:350 -> 2080.00
10:55:57:361 -> 1986.00
10:55:57:371 -> 2065.00
10:55:57:382 -> 1969.00
10:55:57:392 -> 2106.00
10:55:57:402 -> 1906.00
10:55:57:413 -> 2109.00
10:55:57:423 -> 1951.00
10:55:57:433 -> 2064.00
10:55:57:443 -> 1974.00
10:55:57:454 -> 2119.00
10:55:57:464 -> 1975.00
10:55:57:474 -> 2073.00
10:55:57:485 -> 1943.00
10:55:57:495 -> 2113.00
10:55:57:512 -> 1944.00
10:55:57:534 -> 2086.00
10:55:57:534 -> 1938.00
10:55:57:536 -> 2090.00
10:55:57:547 -> 1933.00
10:55:57:557 -> 2072.00
10:55:57:567 -> 1925.00
10:55:57:578 -> 2094.00
10:55:57:588 -> 2026.00
10:55:57:598 -> 1997.00
10:55:57:609 -> 2023.00
10:55:57:639 -> 2017.00
10:55:57:640 -> 2043.00
10:55:57:640 -> 1976.00
10:55:57:650 -> 2088.00
10:55:57:660 -> 1978.00
10:55:57:671 -> 2042.00
10:55:57:681 -> 1972.00
10:55:57:691 -> 2115.00
10:55:57:702 -> 1975.00
10:55:57:712 -> 2108.00
10:55:57:722 -> 1960.00
10:55:57:733 -> 2112.00
10:55:57:743 -> 1927.00
10:55:57:753 -> 2147.00
10:55:57:764 -> 1913.00
10:55:57:775 -> 2132.00
10:55:57:785 -> 1903.00
10:55:57:795 -> 2133.00
10:55:57:805 -> 1909.00
10:55:57:816 -> 2139.00
10:55:57:826 -> 1900.00
10:55:57:836 -> 2144.00
10:55:57:847 -> 1872.00
10:55:57:857 -> 2099.00
10:55:57:868 -> 2024.00
10:55:57:878 -> 2028.00
10:55:57:889 -> 2051.00
10:55:57:899 -> 2013.00
10:55:57:909 -> 2081.00
10:55:57:919 -> 2022.00
10:55:57:930 -> 2029.00
10:55:57:941 -> 1971.00
10:55:57:951 -> 2061.00
10:55:57:961 -> 1948.00
10:55:57:972 -> 2137.00
10:55:57:982 -> 1943.00
10:55:57:993 -> 2101.00
10:55:58:003 -> 1944.00
10:55:58:013 -> 2141.00
10:55:58:024 -> 1903.00
10:55:58:035 -> 2160.00
10:55:58:045 -> 1944.00
10:55:58:055 -> 2113.00
10:55:58:066 -> 1946.00
10:55:58:075 -> 2099.00
10:55:58:086 -> 1895.00
10:55:58:097 -> 2115.00
10:55:58:108 -> 2000.00
10:55:58:118 -> 2055.00
10:55:58:128 -> 1995.00
10:55:58:155 -> 2028.00
10:55:58:156 -> 1997.00
10:55:58:159 -> 1991.00
10:55:58:169 -> 2060.00
10:55:58:180 -> 2001.00
10:55:58:190 -> 2037.00
10:55:58:201 -> 1984.00
10:55:58:211 -> 2043.00
10:55:58:221 -> 1960.00
10:55:58:232 -> 2142.00
10:55:58:242 -> 1909.00
10:55:58:252 -> 2100.00
10:55:58:263 -> 1960.00
10:55:58:273 -> 2138.00
10:55:58:284 -> 1925.00
10:55:58:294 -> 2151.00
10:55:58:305 -> 1896.00
10:55:58:318 -> 2124.00
10:55:58:325 -> 1946.00
10:55:58:336 -> 2068.00
10:55:58:346 -> 1881.00
10:55:58:356 -> 2106.00
10:55:58:367 -> 1876.00
10:55:58:378 -> 2071.00
10:55:58:388 -> 1989.00
10:55:58:398 -> 2021.00
10:55:58:409 -> 2038.00
10:55:58:419 -> 1953.00
10:55:58:429 -> 2061.00
10:55:58:440 -> 1992.00
10:55:58:450 -> 2074.00
10:55:58:461 -> 1948.00
10:55:58:471 -> 2054.00
10:55:58:483 -> 1969.00
10:55:58:492 -> 2118.00
10:55:58:502 -> 1923.00
10:55:58:512 -> 2129.00
10:55:58:522 -> 1923.00
10:55:58:533 -> 2098.00
10:55:58:565 -> 1931.00
10:55:58:565 -> 2150.00
10:55:58:565 -> 1948.00
10:55:58:574 -> 2156.00
10:55:58:584 -> 1918.00
10:55:58:594 -> 2117.00
10:55:58:605 -> 1908.00
10:55:58:615 -> 2129.00
10:55:58:626 -> 2041.00
10:55:58:636 -> 2099.00
10:55:58:646 -> 1902.00
10:55:58:676 -> 2088.00
10:55:58:678 -> 1952.00
10:55:58:679 -> 2060.00
10:55:58:688 -> 2042.00
10:55:58:698 -> 2010.00
10:55:58:710 -> 2032.00
10:55:58:720 -> 2010.00
10:55:58:731 -> 2035.00
10:55:58:741 -> 1953.00
10:55:58:751 -> 2085.00
10:55:58:762 -> 1909.00
10:55:58:772 -> 2125.00
10:55:58:782 -> 1924.00
10:55:58:793 -> 2128.00
10:55:58:803 -> 1914.00
10:55:58:813 -> 2131.00
10:55:58:824 -> 1948.00
10:55:58:838 -> 2075.00
10:55:58:844 -> 1911.00
10:55:58:855 -> 2127.00
10:55:58:865 -> 1959.00
10:55:58:876 -> 2107.00
10:55:58:886 -> 1947.00
10:55:58:896 -> 2065.00
10:55:58:907 -> 1974.00
10:55:58:918 -> 2056.00
10:55:58:928 -> 2029.00
10:55:58:938 -> 2040.00
10:55:58:949 -> 2045.00
10:55:58:960 -> 2004.00
10:55:58:969 -> 2031.00
10:55:58:980 -> 1983.00
10:55:58:990 -> 2078.00
10:55:59:000 -> 1891.00
10:55:59:011 -> 2037.00
10:55:59:023 -> 1954.00
10:55:59:032 -> 2122.00
10:55:59:042 -> 1923.00
10:55:59:053 -> 2143.00
10:55:59:063 -> 1961.00
10:55:59:074 -> 2124.00
10:55:59:083 -> 1933.00
10:55:59:094 -> 2006.00
10:55:59:104 -> 1896.00
10:55:59:115 -> 2158.00
10:55:59:125 -> 1866.00
10:55:59:138 -> 2186.00
10:55:59:145 -> 2063.00
10:55:59:156 -> 1980.00
10:55:59:166 -> 1923.00
10:55:59:205 -> 2024.00
10:55:59:205 -> 1946.00
10:55:59:205 -> 1975.00
10:55:59:207 -> 1941.00
10:55:59:218 -> 2117.00
10:55:59:228 -> 2042.00
10:55:59:239 -> 1966.00
10:55:59:249 -> 2240.00
10:55:59:259 -> 1725.00
10:55:59:269 -> 2149.00
10:55:59:280 -> 2108.00
10:55:59:291 -> 2009.00
10:55:59:301 -> 1798.00
10:55:59:311 -> 1982.00
10:55:59:321 -> 2036.00
10:55:59:332 -> 2330.00
10:55:59:342 -> 2068.00
10:55:59:354 -> 2080.00
10:55:59:364 -> 2091.00
10:55:59:374 -> 2048.00
10:55:59:384 -> 2114.00
10:55:59:394 -> 2417.00
10:55:59:405 -> 2018.00
10:55:59:415 -> 2137.00
10:55:59:426 -> 2039.00
10:55:59:454 -> 2123.00
10:55:59:455 -> 1796.00
10:55:59:456 -> 2026.00
10:55:59:467 -> 2154.00
10:55:59:479 -> 2141.00
10:55:59:488 -> 2094.00
10:55:59:498 -> 1981.00
10:55:59:508 -> 2057.00
10:55:59:518 -> 1582.00
10:55:59:529 -> 2171.00
10:55:59:540 -> 1891.00
10:55:59:550 -> 2308.00
10:55:59:561 -> 2001.00
10:55:59:571 -> 2219.00
10:55:59:581 -> 1802.00
10:55:59:592 -> 2082.00
10:55:59:602 -> 2011.00
10:55:59:613 -> 2334.00
10:55:59:623 -> 1986.00
10:55:59:634 -> 1965.00
10:55:59:644 -> 1941.00
10:55:59:654 -> 2298.00
10:55:59:664 -> 1956.00
10:55:59:675 -> 1979.00
10:55:59:685 -> 1774.00
10:55:59:695 -> 2128.00
10:55:59:720 -> 1904.00
10:55:59:721 -> 2019.00
10:55:59:726 -> 2192.00
10:55:59:736 -> 2158.00
10:55:59:747 -> 1896.00
10:55:59:757 -> 2083.00
10:55:59:767 -> 1996.00
10:55:59:778 -> 2069.00
10:55:59:788 -> 2063.00
10:55:59:799 -> 1896.00
10:55:59:809 -> 2148.00
10:55:59:819 -> 1977.00
10:55:59:830 -> 1956.00
10:55:59:840 -> 1885.00
10:55:59:851 -> 2097.00
10:55:59:861 -> 1729.00
10:55:59:871 -> 2180.00
10:55:59:882 -> 1952.00
10:55:59:893 -> 2024.00
10:55:59:903 -> 1920.00
10:55:59:914 -> 2031.00
10:55:59:924 -> 1890.00
10:55:59:934 -> 2097.00
10:55:59:944 -> 1904.00
10:55:59:954 -> 2104.00
10:55:59:965 -> 1913.00
10:55:59:975 -> 2128.00
10:55:59:986 -> 2007.00
10:55:59:996 -> 2098.00
10:56:00:006 -> 1860.00
10:56:00:017 -> 2149.00
10:56:00:027 -> 2030.00
10:56:00:038 -> 1993.00
10:56:00:049 -> 2052.00
10:56:00:060 -> 1974.00
10:56:00:070 -> 2075.00
10:56:00:081 -> 1981.00
10:56:00:091 -> 2147.00
10:56:00:101 -> 1922.00
10:56:00:112 -> 2089.00
10:56:00:122 -> 1954.00
10:56:00:133 -> 2075.00
10:56:00:143 -> 1945.00
10:56:00:153 -> 2129.00
10:56:00:168 -> 1923.00
10:56:00:174 -> 2084.00
10:56:00:184 -> 1942.00
10:56:00:195 -> 2136.00
10:56:00:205 -> 1941.00
10:56:00:216 -> 2094.00
10:56:00:238 -> 2039.00
10:56:00:239 -> 2124.00
10:56:00:247 -> 1935.00
10:56:00:257 -> 2046.00
10:56:00:267 -> 1950.00
10:56:00:278 -> 2014.00
10:56:00:314 -> 2019.00
10:56:00:314 -> 2054.00
10:56:00:314 -> 2060.00
10:56:00:319 -> 1995.00
10:56:00:329 -> 2118.00
10:56:00:339 -> 1858.00
10:56:00:350 -> 2062.00
10:56:00:360 -> 1979.00
10:56:00:372 -> 2071.00
10:56:00:381 -> 2000.00
10:56:00:391 -> 2155.00
10:56:00:401 -> 1950.00
10:56:00:412 -> 2158.00
10:56:00:422 -> 1938.00
10:56:00:432 -> 2130.00
10:56:00:443 -> 1934.00
10:56:00:453 -> 2131.00
10:56:00:463 -> 1954.00
10:56:00:474 -> 2109.00
10:56:00:484 -> 1927.00
10:56:00:495 -> 2140.00
10:56:00:505 -> 1924.00
10:56:00:515 -> 2111.00
10:56:00:525 -> 1938.00
10:56:00:536 -> 2121.00
10:56:00:546 -> 1888.00
10:56:00:559 -> 2079.00
10:56:00:567 -> 1965.00
10:56:00:577 -> 2040.00
10:56:00:587 -> 1997.00
10:56:00:598 -> 2050.00
10:56:00:609 -> 1978.00
10:56:00:619 -> 1987.00
10:56:00:630 -> 2083.00
10:56:00:640 -> 1953.00
10:56:00:651 -> 2117.00
10:56:00:661 -> 1932.00
10:56:00:671 -> 2141.00
10:56:00:682 -> 1941.00
10:56:00:692 -> 2124.00
10:56:00:702 -> 1910.00
10:56:00:713 -> 2131.00
10:56:00:723 -> 1937.00
10:56:00:734 -> 2093.00
10:56:00:757 -> 1903.00
10:56:00:758 -> 2100.00
10:56:00:764 -> 1925.00
10:56:00:775 -> 2131.00
10:56:00:785 -> 1941.00
10:56:00:795 -> 2086.00
10:56:00:806 -> 2056.00
10:56:00:817 -> 2064.00
10:56:00:827 -> 2005.00
10:56:00:837 -> 2042.00
10:56:00:848 -> 2012.00
10:56:00:858 -> 2004.00
10:56:00:868 -> 2046.00
10:56:00:879 -> 1973.00
10:56:00:890 -> 2071.00
10:56:00:905 -> 1937.00
10:56:00:911 -> 2096.00
10:56:00:921 -> 1879.00
10:56:00:932 -> 2150.00
10:56:00:942 -> 1936.00
10:56:00:952 -> 2073.00
10:56:00:963 -> 1952.00
10:56:00:973 -> 2176.00
10:56:00:984 -> 1923.00
10:56:00:994 -> 2124.00
10:56:01:004 -> 1916.00
10:56:01:014 -> 2121.00
10:56:01:025 -> 1943.00
10:56:01:035 -> 2087.00
10:56:01:046 -> 1975.00
10:56:01:057 -> 2089.00
10:56:01:067 -> 1944.00
10:56:01:079 -> 2049.00
10:56:01:089 -> 2129.00
10:56:01:099 -> 1979.00
10:56:01:110 -> 2093.00
10:56:01:120 -> 1965.00
10:56:01:130 -> 2093.00
10:56:01:140 -> 1945.00
10:56:01:151 -> 2170.00
10:56:01:161 -> 1927.00
10:56:01:172 -> 2068.00
10:56:01:182 -> 1938.00
10:56:01:193 -> 2085.00
10:56:01:203 -> 1965.00
10:56:01:213 -> 2179.00
10:56:01:224 -> 1925.00
10:56:01:234 -> 2140.00
10:56:01:244 -> 1928.00
10:56:01:255 -> 2115.00
10:56:01:279 -> 1955.00
10:56:01:280 -> 2100.00
10:56:01:286 -> 1874.00
10:56:01:296 -> 2092.00
10:56:01:307 -> 1879.00
10:56:01:335 -> 2025.00
10:56:01:336 -> 2027.00
10:56:01:338 -> 1988.00
10:56:01:349 -> 2084.00
10:56:01:359 -> 1978.00
10:56:01:369 -> 2092.00
10:56:01:380 -> 1964.00
10:56:01:390 -> 2087.00
10:56:01:400 -> 1941.00
10:56:01:411 -> 2122.00
10:56:01:421 -> 1936.00
10:56:01:432 -> 2136.00
10:56:01:443 -> 1910.00
10:56:01:453 -> 2128.00
10:56:01:463 -> 1892.00
10:56:01:474 -> 2154.00
10:56:01:484 -> 1927.00
10:56:01:494 -> 2101.00
10:56:01:505 -> 1960.00
10:56:01:515 -> 2081.00
10:56:01:525 -> 2001.00
10:56:01:536 -> 2048.00
10:56:01:546 -> 1909.00
10:56:01:556 -> 2084.00
10:56:01:567 -> 1948.00
10:56:01:577 -> 2020.00
10:56:01:587 -> 2037.00
10:56:01:599 -> 1997.00
10:56:01:609 -> 2071.00
10:56:01:619 -> 1959.00
10:56:01:629 -> 2118.00
10:56:01:640 -> 1937.00
10:56:01:650 -> 2057.00
10:56:01:661 -> 1914.00
10:56:01:673 -> 2129.00
10:56:01:682 -> 1906.00
10:56:01:692 -> 2155.00
10:56:01:703 -> 1942.00
10:56:01:713 -> 2147.00
10:56:01:723 -> 1895.00
10:56:01:734 -> 2147.00
10:56:01:744 -> 1953.00
10:56:01:755 -> 2095.00
10:56:01:765 -> 1951.00
10:56:01:776 -> 2065.00
10:56:01:803 -> 1941.00
10:56:01:804 -> 2052.00
10:56:01:807 -> 2009.00
10:56:01:817 -> 1977.00
10:56:01:828 -> 2048.00
10:56:01:838 -> 1989.00
10:56:01:848 -> 2044.00
10:56:01:858 -> 2005.00
10:56:01:869 -> 2077.00
10:56:01:880 -> 1974.00
10:56:01:890 -> 2111.00
10:56:01:901 -> 1938.00
10:56:01:911 -> 2153.00
10:56:01:922 -> 1942.00
10:56:01:932 -> 2157.00
10:56:01:942 -> 1918.00
10:56:01:956 -> 2120.00
10:56:01:963 -> 1884.00
10:56:01:974 -> 2109.00
10:56:01:984 -> 1929.00
10:56:01:994 -> 2124.00
10:56:02:005 -> 1992.00
10:56:02:015 -> 2108.00
10:56:02:025 -> 1831.00
10:56:02:036 -> 2077.00
10:56:02:046 -> 1958.00
10:56:02:057 -> 2030.00
10:56:02:068 -> 2045.00
10:56:02:078 -> 1961.00
10:56:02:088 -> 2055.00
10:56:02:098 -> 1989.00
10:56:02:108 -> 2043.00
10:56:02:122 -> 1971.00
10:56:02:129 -> 2086.00
10:56:02:139 -> 1968.00
10:56:02:150 -> 2138.00
10:56:02:160 -> 1918.00
10:56:02:170 -> 2149.00
10:56:02:181 -> 1939.00
10:56:02:192 -> 2085.00
10:56:02:202 -> 1933.00
10:56:02:212 -> 2163.00
10:56:02:222 -> 1925.00
10:56:02:233 -> 2080.00
10:56:02:262 -> 1923.00
10:56:02:262 -> 2134.00
10:56:02:263 -> 1950.00
10:56:02:274 -> 2109.00
10:56:02:284 -> 1927.00
10:56:02:295 -> 2113.00
10:56:02:325 -> 2065.00
10:56:02:326 -> 2109.00
10:56:02:326 -> 1808.00
10:56:02:336 -> 2050.00
10:56:02:346 -> 1954.00
10:56:02:356 -> 2040.00
10:56:02:367 -> 2008.00
10:56:02:377 -> 2013.00
10:56:02:387 -> 2025.00
10:56:02:398 -> 2007.00
10:56:02:408 -> 2067.00
10:56:02:419 -> 1950.00
10:56:02:429 -> 2065.00
10:56:02:440 -> 1938.00
10:56:02:450 -> 2054.00
10:56:02:460 -> 1942.00
10:56:02:472 -> 2140.00
10:56:02:482 -> 1909.00
10:56:02:492 -> 2149.00
10:56:02:502 -> 1793.00
10:56:02:512 -> 2162.00
10:56:02:522 -> 1906.00
10:56:02:533 -> 2109.00
10:56:02:543 -> 1946.00
10:56:02:553 -> 2089.00
10:56:02:566 -> 1983.00
10:56:02:574 -> 2261.00
10:56:02:584 -> 1953.00
10:56:02:595 -> 2256.00
10:56:02:605 -> 1774.00
10:56:02:615 -> 2394.00
10:56:02:626 -> 1763.00
10:56:02:636 -> 1711.00
10:56:02:647 -> 1976.00
10:56:02:657 -> 2109.00
10:56:02:667 -> 2095.00
10:56:02:678 -> 1730.00
10:56:02:688 -> 2150.00
10:56:02:698 -> 2061.00
10:56:02:709 -> 2239.00
10:56:02:719 -> 1793.00
10:56:02:729 -> 2073.00
10:56:02:740 -> 2087.00
10:56:02:752 -> 1971.00
10:56:02:761 -> 1671.00
10:56:02:772 -> 2194.00
10:56:02:782 -> 1956.00
10:56:02:793 -> 2220.00
10:56:02:803 -> 2324.00
10:56:02:813 -> 2377.00
10:56:02:823 -> 2063.00
10:56:02:842 -> 1906.00
10:56:02:844 -> 1933.00
10:56:02:854 -> 1884.00
10:56:02:866 -> 2017.00
10:56:02:876 -> 2113.00
10:56:02:886 -> 2142.00
10:56:02:897 -> 1946.00
10:56:02:908 -> 1908.00
10:56:02:919 -> 1990.00
10:56:02:929 -> 2074.00
10:56:02:941 -> 2007.00
10:56:02:951 -> 2208.00
10:56:02:961 -> 2010.00
10:56:02:972 -> 2267.00
10:56:02:982 -> 1790.00
10:56:02:992 -> 2411.00
10:56:03:002 -> 1890.00
10:56:03:013 -> 1949.00
10:56:03:023 -> 1799.00
10:56:03:033 -> 1963.00
10:56:03:044 -> 1966.00
10:56:03:058 -> 2095.00
10:56:03:064 -> 2020.00
10:56:03:075 -> 2146.00
10:56:03:085 -> 1735.00
10:56:03:096 -> 2069.00
10:56:03:106 -> 2165.00
10:56:03:117 -> 1789.00
10:56:03:127 -> 2107.00
10:56:03:162 -> 2114.00
10:56:03:163 -> 1959.00
10:56:03:163 -> 1957.00
10:56:03:168 -> 2166.00
10:56:03:178 -> 1954.00
10:56:03:189 -> 2112.00
10:56:03:199 -> 1967.00
10:56:03:210 -> 1913.00
10:56:03:222 -> 2030.00
10:56:03:230 -> 2009.00
10:56:03:241 -> 1875.00
10:56:03:251 -> 2010.00
10:56:03:262 -> 1945.00
10:56:03:272 -> 2114.00
10:56:03:283 -> 1894.00
10:56:03:292 -> 2149.00
10:56:03:303 -> 2084.00
10:56:03:313 -> 1801.00
10:56:03:324 -> 1966.00
10:56:03:334 -> 2231.00
10:56:03:362 -> 1922.00
10:56:03:363 -> 2059.00
10:56:03:365 -> 1903.00
10:56:03:375 -> 2045.00
10:56:03:386 -> 1834.00
10:56:03:396 -> 2111.00
10:56:03:406 -> 1891.00
10:56:03:417 -> 2102.00
10:56:03:427 -> 1882.00
10:56:03:438 -> 1977.00
10:56:03:450 -> 2094.00
10:56:03:460 -> 1965.00
10:56:03:470 -> 2153.00
10:56:03:481 -> 1821.00
10:56:03:491 -> 2033.00
10:56:03:501 -> 1977.00
10:56:03:512 -> 2159.00
10:56:03:523 -> 1935.00
10:56:03:533 -> 2072.00
10:56:03:544 -> 1954.00
10:56:03:554 -> 2105.00
10:56:03:564 -> 1971.00
10:56:03:575 -> 2093.00
10:56:03:585 -> 1858.00
10:56:03:595 -> 2046.00
10:56:03:606 -> 1969.00
10:56:03:616 -> 2025.00
10:56:03:626 -> 1990.00
10:56:03:637 -> 1983.00
10:56:03:647 -> 2026.00
10:56:03:657 -> 1981.00
10:56:03:668 -> 2088.00
10:56:03:678 -> 1988.00
10:56:03:688 -> 2087.00
10:56:03:698 -> 1980.00
10:56:03:710 -> 2090.00
10:56:03:719 -> 1931.00
10:56:03:729 -> 2137.00
10:56:03:740 -> 1927.00
10:56:03:750 -> 2148.00
10:56:03:760 -> 1930.00
10:56:03:770 -> 2168.00
10:56:03:781 -> 1932.00
10:56:03:791 -> 2125.00
10:56:03:801 -> 1901.00
10:56:03:811 -> 2140.00
10:56:03:822 -> 1886.00
10:56:03:832 -> 2126.00
10:56:03:842 -> 1887.00
10:56:03:856 -> 2087.00
10:56:03:878 -> 1946.00
10:56:03:879 -> 2059.00
10:56:03:884 -> 1951.00
10:56:03:894 -> 2094.00
10:56:03:904 -> 1915.00
10:56:03:915 -> 2057.00
10:56:03:925 -> 1898.00
10:56:03:935 -> 2088.00
10:56:03:946 -> 1942.00
10:56:03:956 -> 2075.00
10:56:03:966 -> 2002.00
10:56:03:976 -> 1960.00
10:56:03:987 -> 2003.00
10:56:03:997 -> 2013.00
10:56:04:007 -> 2060.00
10:56:04:022 -> 1941.00
10:56:04:028 -> 2097.00
10:56:04:038 -> 1965.00
10:56:04:049 -> 2125.00
10:56:04:059 -> 1931.00
10:56:04:069 -> 2103.00
10:56:04:080 -> 1919.00
10:56:04:090 -> 2147.00
10:56:04:101 -> 1896.00
10:56:04:111 -> 2125.00
10:56:04:121 -> 1932.00
10:56:04:133 -> 2094.00
10:56:04:143 -> 1921.00
10:56:04:153 -> 2116.00
10:56:04:163 -> 1920.00
10:56:04:173 -> 2094.00
10:56:04:184 -> 1947.00
10:56:04:194 -> 2107.00
10:56:04:205 -> 2040.00
10:56:04:214 -> 2075.00
10:56:04:225 -> 1897.00
10:56:04:235 -> 2076.00
10:56:04:245 -> 1955.00
10:56:04:256 -> 2051.00
10:56:04:266 -> 2023.00
10:56:04:297 -> 2022.00
10:56:04:297 -> 2054.00
10:56:04:297 -> 1990.00
10:56:04:307 -> 2083.00
10:56:04:317 -> 1959.00
10:56:04:328 -> 2092.00
10:56:04:338 -> 1977.00
10:56:04:349 -> 2079.00
10:56:04:359 -> 1924.00
10:56:04:372 -> 2139.00
10:56:04:396 -> 1923.00
10:56:04:397 -> 2134.00
10:56:04:400 -> 1936.00
10:56:04:411 -> 2130.00
10:56:04:421 -> 1894.00
10:56:04:432 -> 2152.00
10:56:04:442 -> 1914.00
10:56:04:453 -> 2171.00
10:56:04:463 -> 1925.00
10:56:04:473 -> 2095.00
10:56:04:483 -> 1952.00
10:56:04:494 -> 2110.00
10:56:04:504 -> 1944.00
10:56:04:514 -> 2078.00
10:56:04:525 -> 1896.00
10:56:04:539 -> 2074.00
10:56:04:546 -> 1959.00
10:56:04:556 -> 2048.00
10:56:04:566 -> 2013.00
10:56:04:577 -> 2021.00
10:56:04:588 -> 2019.00
10:56:04:598 -> 1976.00
10:56:04:608 -> 2104.00
10:56:04:618 -> 1972.00
10:56:04:629 -> 2110.00
10:56:04:639 -> 1929.00
10:56:04:650 -> 2168.00
10:56:04:660 -> 1890.00
10:56:04:671 -> 2142.00
10:56:04:682 -> 1891.00
10:56:04:692 -> 2120.00
10:56:04:702 -> 1939.00
10:56:04:713 -> 2146.00
10:56:04:724 -> 1922.00
10:56:04:733 -> 2121.00
10:56:04:744 -> 1903.00
10:56:04:754 -> 2100.00
10:56:04:765 -> 1889.00
10:56:04:775 -> 2045.00
10:56:04:786 -> 1981.00
10:56:04:796 -> 2055.00
10:56:04:806 -> 2024.00
10:56:04:817 -> 1997.00
10:56:04:827 -> 2020.00
10:56:04:837 -> 1997.00
10:56:04:847 -> 2071.00
10:56:04:860 -> 1954.00
10:56:04:870 -> 2154.00
10:56:04:880 -> 1921.00
10:56:04:890 -> 2109.00
10:56:04:913 -> 1936.00
10:56:04:913 -> 2133.00
10:56:04:922 -> 1915.00
10:56:04:932 -> 2155.00
10:56:04:942 -> 1925.00
10:56:04:952 -> 2145.00
10:56:04:963 -> 1948.00
10:56:04:973 -> 2129.00
10:56:04:984 -> 1948.00
10:56:04:994 -> 2076.00
10:56:05:004 -> 2004.00
10:56:05:015 -> 2074.00
10:56:05:025 -> 1913.00
10:56:05:035 -> 2073.00
10:56:05:045 -> 1982.00
10:56:05:056 -> 2044.00
10:56:05:068 -> 2019.00
10:56:05:078 -> 2020.00
10:56:05:089 -> 2073.00
10:56:05:100 -> 1923.00
10:56:05:110 -> 2122.00
10:56:05:121 -> 1919.00
10:56:05:131 -> 2124.00
10:56:05:142 -> 1925.00
10:56:05:152 -> 2141.00
10:56:05:162 -> 1865.00
10:56:05:173 -> 2105.00
10:56:05:183 -> 1936.00
10:56:05:193 -> 2105.00
10:56:05:204 -> 1927.00
10:56:05:214 -> 2079.00
10:56:05:226 -> 1906.00
10:56:05:236 -> 1998.00
10:56:05:246 -> 2026.00
10:56:05:279 -> 2001.00
10:56:05:279 -> 2069.00
10:56:05:279 -> 1974.00
10:56:05:287 -> 2084.00
10:56:05:298 -> 2015.00
10:56:05:308 -> 2076.00
10:56:05:318 -> 1938.00
10:56:05:329 -> 2087.00
10:56:05:340 -> 1921.00
10:56:05:349 -> 2104.00
10:56:05:360 -> 1923.00
10:56:05:370 -> 2159.00
10:56:05:381 -> 1916.00
10:56:05:391 -> 2135.00
10:56:05:401 -> 1902.00
10:56:05:412 -> 2117.00
10:56:05:429 -> 1910.00
10:56:05:432 -> 2128.00
10:56:05:442 -> 1916.00
10:56:05:453 -> 2130.00
10:56:05:464 -> 1925.00
10:56:05:474 -> 2045.00
10:56:05:484 -> 1928.00
10:56:05:496 -> 2084.00
10:56:05:506 -> 2035.00
10:56:05:517 -> 2003.00
10:56:05:527 -> 2045.00
10:56:05:537 -> 1982.00
10:56:05:548 -> 2087.00
10:56:05:558 -> 1964.00
10:56:05:568 -> 2088.00
10:56:05:579 -> 1959.00
10:56:05:589 -> 2117.00
10:56:05:599 -> 1950.00
10:56:05:611 -> 2064.00
10:56:05:621 -> 1938.00
10:56:05:631 -> 2099.00
10:56:05:641 -> 1910.00
10:56:05:652 -> 2164.00
10:56:05:662 -> 1918.00
10:56:05:672 -> 2119.00
10:56:05:684 -> 1936.00
10:56:05:693 -> 2123.00
10:56:05:704 -> 1937.00
10:56:05:714 -> 2079.00
10:56:05:724 -> 1959.00
10:56:05:735 -> 2110.00
10:56:05:745 -> 1920.00
10:56:05:755 -> 2011.00
10:56:05:765 -> 2031.00
10:56:05:776 -> 2032.00
10:56:05:786 -> 2032.00
10:56:05:797 -> 1978.00
10:56:05:808 -> 2080.00
10:56:05:817 -> 1922.00
10:56:05:827 -> 2014.00
10:56:05:838 -> 2026.00
10:56:05:848 -> 2152.00
10:56:05:858 -> 2022.00
10:56:05:869 -> 2151.00
10:56:05:879 -> 1914.00
10:56:05:889 -> 2260.00
10:56:05:900 -> 1987.00
10:56:05:910 -> 2039.00
10:56:05:920 -> 2018.00
10:56:05:946 -> 1890.00
10:56:05:946 -> 1931.00
10:56:05:952 -> 2050.00
10:56:05:962 -> 1884.00
10:56:05:972 -> 2179.00
10:56:05:983 -> 1950.00
10:56:05:993 -> 2128.00
10:56:06:003 -> 1925.00
10:56:06:014 -> 2056.00
10:56:06:024 -> 1903.00
10:56:06:034 -> 1993.00
10:56:06:046 -> 1943.00
10:56:06:056 -> 2112.00
10:56:06:071 -> 2191.00
10:56:06:078 -> 1567.00
10:56:06:088 -> 1964.00
10:56:06:099 -> 1981.00
10:56:06:135 -> 2321.00
10:56:06:136 -> 1972.00
10:56:06:136 -> 2054.00
10:56:06:140 -> 1987.00
10:56:06:150 -> 2039.00
10:56:06:160 -> 1774.00
10:56:06:171 -> 2147.00
10:56:06:181 -> 1863.00
10:56:06:191 -> 2132.00
10:56:06:202 -> 1940.00
10:56:06:212 -> 1882.00
10:56:06:222 -> 1918.00
10:56:06:233 -> 2105.00
10:56:06:244 -> 2048.00
10:56:06:257 -> 2064.00
10:56:06:264 -> 1975.00
10:56:06:275 -> 1847.00
10:56:06:285 -> 1927.00
10:56:06:297 -> 2092.00
10:56:06:307 -> 2081.00
10:56:06:317 -> 1943.00
10:56:06:328 -> 2125.00
10:56:06:338 -> 1926.00
10:56:06:349 -> 2010.00
10:56:06:359 -> 2006.00
10:56:06:370 -> 2124.00
10:56:06:380 -> 1875.00
10:56:06:391 -> 2111.00
10:56:06:405 -> 1849.00
10:56:06:411 -> 2116.00
10:56:06:422 -> 1867.00
10:56:06:432 -> 2207.00
10:56:06:442 -> 1754.00
10:56:06:467 -> 2111.00
10:56:06:468 -> 1972.00
10:56:06:474 -> 2118.00
10:56:06:484 -> 1817.00
10:56:06:494 -> 2202.00
10:56:06:506 -> 1903.00
10:56:06:517 -> 1819.00
10:56:06:527 -> 2102.00
10:56:06:538 -> 1921.00
10:56:06:548 -> 2015.00
10:56:06:558 -> 1998.00
10:56:06:573 -> 2094.00
10:56:06:580 -> 1847.00
10:56:06:590 -> 2174.00
10:56:06:601 -> 1942.00
10:56:06:611 -> 2170.00
10:56:06:621 -> 1939.00
10:56:06:632 -> 2128.00
10:56:06:642 -> 1975.00
10:56:06:652 -> 2010.00
10:56:06:663 -> 1929.00
10:56:06:673 -> 2085.00
10:56:06:685 -> 2012.00
10:56:06:695 -> 1993.00
10:56:06:705 -> 1911.00
10:56:06:715 -> 2213.00
10:56:06:725 -> 2011.00
10:56:06:735 -> 1994.00
10:56:06:746 -> 2020.00
10:56:06:756 -> 2056.00
10:56:06:766 -> 2101.00
10:56:06:777 -> 1959.00
10:56:06:787 -> 2098.00
10:56:06:797 -> 1903.00
10:56:06:808 -> 2167.00
10:56:06:818 -> 1771.00
10:56:06:828 -> 2104.00
10:56:06:838 -> 1984.00
10:56:06:849 -> 2130.00
10:56:06:859 -> 1955.00
10:56:06:870 -> 2131.00
10:56:06:880 -> 1980.00
10:56:06:891 -> 2089.00
10:56:06:902 -> 2051.00
10:56:06:912 -> 2104.00
10:56:06:923 -> 1973.00
10:56:06:933 -> 2069.00
10:56:06:943 -> 1944.00
10:56:06:954 -> 2104.00
10:56:06:964 -> 1915.00
10:56:06:982 -> 2052.00
10:56:06:985 -> 1972.00
10:56:06:995 -> 1944.00
10:56:07:005 -> 2024.00
10:56:07:016 -> 1999.00
10:56:07:026 -> 2017.00
10:56:07:036 -> 2047.00
10:56:07:047 -> 2049.00
10:56:07:057 -> 1923.00
10:56:07:067 -> 2096.00
10:56:07:078 -> 1908.00
10:56:07:088 -> 2098.00
10:56:07:098 -> 1951.00
10:56:07:119 -> 2136.00
10:56:07:135 -> 1902.00
10:56:07:135 -> 2158.00
10:56:07:139 -> 1888.00
10:56:07:150 -> 2154.00
10:56:07:160 -> 1901.00
10:56:07:170 -> 2156.00
10:56:07:180 -> 1872.00
10:56:07:191 -> 2126.00
10:56:07:201 -> 1937.00
10:56:07:212 -> 2158.00
10:56:07:222 -> 1925.00
10:56:07:232 -> 2063.00
10:56:07:243 -> 1942.00
10:56:07:253 -> 2144.00
10:56:07:263 -> 2073.00
10:56:07:274 -> 2166.00
10:56:07:284 -> 1859.00
10:56:07:294 -> 2066.00
10:56:07:304 -> 1911.00
10:56:07:316 -> 2020.00
10:56:07:326 -> 2009.00
10:56:07:336 -> 1983.00
10:56:07:347 -> 2073.00
10:56:07:357 -> 2000.00
10:56:07:367 -> 2122.00
10:56:07:379 -> 1976.00
10:56:07:389 -> 2120.00
10:56:07:405 -> 1918.00
10:56:07:410 -> 2131.00
10:56:07:420 -> 1965.00
10:56:07:431 -> 2106.00
10:56:07:441 -> 1917.00
10:56:07:452 -> 2139.00
10:56:07:462 -> 1888.00
10:56:07:472 -> 2109.00
10:56:07:497 -> 1952.00
10:56:07:498 -> 2097.00
10:56:07:503 -> 1931.00
10:56:07:513 -> 1981.00
10:56:07:524 -> 1908.00
10:56:07:534 -> 2067.00
10:56:07:544 -> 2001.00
10:56:07:555 -> 2004.00
10:56:07:566 -> 2005.00
10:56:07:576 -> 2002.00
10:56:07:590 -> 2049.00
10:56:07:597 -> 1959.00
10:56:07:607 -> 2107.00
10:56:07:617 -> 1946.00
10:56:07:628 -> 2141.00
10:56:07:639 -> 1926.00
10:56:07:649 -> 2164.00
10:56:07:659 -> 1863.00
10:56:07:669 -> 2142.00
10:56:07:680 -> 1923.00
10:56:07:690 -> 2140.00
10:56:07:700 -> 1870.00
10:56:07:711 -> 2122.00
10:56:07:722 -> 1904.00
10:56:07:732 -> 2114.00
10:56:07:742 -> 1962.00
10:56:07:753 -> 2091.00
10:56:07:763 -> 2009.00
10:56:07:774 -> 2087.00
10:56:07:785 -> 1930.00
10:56:07:795 -> 2025.00
10:56:07:805 -> 2004.00
10:56:07:815 -> 1989.00
10:56:07:826 -> 2057.00
10:56:07:836 -> 1997.00
10:56:07:847 -> 2093.00
10:56:07:858 -> 1940.00
10:56:07:868 -> 2153.00
10:56:07:879 -> 1927.00
10:56:07:890 -> 2155.00
10:56:07:899 -> 1919.00
10:56:07:910 -> 2190.00
10:56:07:920 -> 1923.00
10:56:07:931 -> 2129.00
10:56:07:941 -> 1891.00
10:56:07:952 -> 2096.00
10:56:07:962 -> 1922.00
10:56:07:972 -> 2120.00
10:56:07:983 -> 1936.00
10:56:07:993 -> 2095.00
10:56:08:017 -> 2047.00
10:56:08:018 -> 2114.00
10:56:08:024 -> 1909.00
10:56:08:034 -> 2039.00
10:56:08:044 -> 1989.00
10:56:08:056 -> 2026.00
10:56:08:065 -> 2003.00
10:56:08:076 -> 2010.00
10:56:08:086 -> 2058.00
10:56:08:096 -> 1999.00
10:56:08:126 -> 2097.00
10:56:08:126 -> 1930.00
10:56:08:127 -> 2091.00
10:56:08:138 -> 1961.00
10:56:08:148 -> 2117.00
10:56:08:158 -> 1931.00
10:56:08:169 -> 2139.00
10:56:08:179 -> 1906.00
10:56:08:190 -> 2154.00
10:56:08:202 -> 1851.00
10:56:08:210 -> 2166.00
10:56:08:220 -> 1940.00
10:56:08:231 -> 2140.00
10:56:08:241 -> 1896.00
10:56:08:252 -> 2104.00
10:56:08:262 -> 1944.00
10:56:08:272 -> 2084.00
10:56:08:283 -> 2033.00
10:56:08:294 -> 2065.00
10:56:08:304 -> 1933.00
10:56:08:315 -> 2068.00
10:56:08:325 -> 2034.00
10:56:08:335 -> 2006.00
10:56:08:346 -> 2062.00
10:56:08:356 -> 1961.00
10:56:08:367 -> 2092.00
10:56:08:377 -> 1909.00
10:56:08:388 -> 2098.00
10:56:08:399 -> 1952.00
10:56:08:409 -> 2167.00
10:56:08:419 -> 1922.00
10:56:08:430 -> 2145.00
10:56:08:440 -> 1918.00
10:56:08:450 -> 2144.00
10:56:08:461 -> 1956.00
10:56:08:471 -> 2070.00
10:56:08:483 -> 1977.00
10:56:08:493 -> 2072.00
10:56:08:503 -> 1941.00
10:56:08:513 -> 2074.00
10:56:08:539 -> 1974.00
10:56:08:539 -> 1977.00
10:56:08:544 -> 1973.00
10:56:08:555 -> 2015.00
10:56:08:565 -> 2048.00
10:56:08:576 -> 2004.00
10:56:08:586 -> 2057.00
10:56:08:596 -> 1930.00
10:56:08:607 -> 2037.00
10:56:08:617 -> 1894.00
10:56:08:627 -> 2145.00
10:56:08:638 -> 1879.00
10:56:08:648 -> 2095.00
10:56:08:658 -> 1926.00
10:56:08:671 -> 2120.00
10:56:08:680 -> 1944.00
10:56:08:690 -> 2037.00
10:56:08:701 -> 1998.00
10:56:08:712 -> 2108.00
10:56:08:723 -> 1904.00
10:56:08:733 -> 2053.00
10:56:08:744 -> 1929.00
10:56:08:754 -> 1991.00
10:56:08:764 -> 2067.00
10:56:08:775 -> 1977.00
10:56:08:785 -> 1933.00
10:56:08:796 -> 2026.00
10:56:08:806 -> 2033.00
10:56:08:816 -> 1977.00
10:56:08:827 -> 2101.00
10:56:08:839 -> 1901.00
10:56:08:847 -> 2038.00
10:56:08:857 -> 1907.00
10:56:08:868 -> 2284.00
10:56:08:878 -> 1793.00
10:56:08:888 -> 2164.00
10:56:08:899 -> 1930.00
10:56:08:909 -> 2216.00
10:56:08:919 -> 1889.00
10:56:08:930 -> 2065.00
10:56:08:940 -> 1928.00
10:56:08:950 -> 2275.00
10:56:08:961 -> 1939.00
10:56:08:971 -> 2145.00
10:56:08:982 -> 2041.00
10:56:08:993 -> 2130.00
10:56:09:005 -> 1979.00
10:56:09:014 -> 1941.00
10:56:09:024 -> 1994.00
10:56:09:034 -> 2050.00
10:56:09:060 -> 1920.00
10:56:09:061 -> 1982.00
10:56:09:066 -> 2017.00
10:56:09:078 -> 1916.00
10:56:09:088 -> 2068.00
10:56:09:098 -> 1930.00
10:56:09:109 -> 2154.00
10:56:09:120 -> 2049.00
10:56:09:130 -> 2156.00
10:56:09:140 -> 1992.00
10:56:09:151 -> 2155.00
10:56:09:181 -> 1847.00
10:56:09:181 -> 2260.00
10:56:09:182 -> 1906.00
10:56:09:192 -> 2054.00
10:56:09:205 -> 1989.00
10:56:09:213 -> 2077.00
10:56:09:223 -> 1721.00
10:56:09:233 -> 2083.00
10:56:09:244 -> 2076.00
10:56:09:254 -> 1944.00
10:56:09:264 -> 2051.00
10:56:09:275 -> 1909.00
10:56:09:285 -> 2135.00
10:56:09:296 -> 1992.00
10:56:09:306 -> 2089.00
10:56:09:316 -> 1982.00
10:56:09:327 -> 2067.00
10:56:09:337 -> 1860.00
10:56:09:347 -> 2159.00
10:56:09:358 -> 1963.00
10:56:09:369 -> 1998.00
10:56:09:379 -> 1919.00
10:56:09:389 -> 2101.00
10:56:09:404 -> 1929.00
10:56:09:410 -> 2154.00
10:56:09:420 -> 1949.00
10:56:09:431 -> 2154.00
10:56:09:440 -> 1856.00
10:56:09:451 -> 2142.00
10:56:09:461 -> 1951.00
10:56:09:471 -> 2057.00
10:56:09:482 -> 2001.00
10:56:09:492 -> 2057.00
10:56:09:503 -> 1882.00
10:56:09:513 -> 2024.00
10:56:09:523 -> 2006.00
10:56:09:534 -> 2017.00
10:56:09:544 -> 2031.00
10:56:09:554 -> 1975.00
10:56:09:577 -> 2071.00
10:56:09:579 -> 1958.00
10:56:09:586 -> 2053.00
10:56:09:595 -> 1987.00
10:56:09:606 -> 2110.00
10:56:09:616 -> 1958.00
10:56:09:627 -> 2086.00
10:56:09:637 -> 1918.00
10:56:09:647 -> 2124.00
10:56:09:658 -> 1933.00
10:56:09:669 -> 2154.00
10:56:09:679 -> 1925.00
10:56:09:689 -> 2135.00
10:56:09:700 -> 1926.00
10:56:09:710 -> 2120.00
10:56:09:722 -> 1888.00
10:56:09:731 -> 2119.00
10:56:09:741 -> 1918.00
10:56:09:751 -> 2119.00
10:56:09:762 -> 1911.00
10:56:09:772 -> 2096.00
10:56:09:782 -> 2036.00
10:56:09:793 -> 2092.00
10:56:09:803 -> 1891.00
10:56:09:813 -> 1966.00
10:56:09:824 -> 1962.00
10:56:09:834 -> 2047.00
10:56:09:844 -> 2031.00
10:56:09:855 -> 1978.00
10:56:09:865 -> 2073.00
10:56:09:875 -> 1953.00
10:56:09:886 -> 2109.00
10:56:09:896 -> 1937.00
10:56:09:917 -> 1949.00
10:56:09:906 -> 2134.00
10:56:09:927 -> 2174.00
10:56:09:937 -> 1928.00
10:56:09:947 -> 2075.00
10:56:09:958 -> 1876.00
10:56:09:969 -> 2155.00
10:56:09:979 -> 1903.00
10:56:09:989 -> 2129.00
10:56:09:999 -> 1920.00
10:56:10:010 -> 2149.00
10:56:10:020 -> 1918.00
10:56:10:030 -> 2127.00
10:56:10:042 -> 1947.00
10:56:10:052 -> 2066.00
10:56:10:063 -> 1929.00
10:56:10:073 -> 2060.00
10:56:10:097 -> 1968.00
10:56:10:098 -> 2000.00
10:56:10:104 -> 2024.00
10:56:10:114 -> 1957.00
10:56:10:126 -> 2048.00
10:56:10:136 -> 1970.00
10:56:10:146 -> 2073.00
10:56:10:185 -> 1902.00
10:56:10:185 -> 2141.00
10:56:10:185 -> 1940.00
10:56:10:187 -> 2125.00
10:56:10:198 -> 1898.00
10:56:10:208 -> 2134.00
10:56:10:218 -> 1925.00
10:56:10:230 -> 2143.00
10:56:10:240 -> 1931.00
10:56:10:254 -> 2129.00
10:56:10:262 -> 1917.00
10:56:10:273 -> 2084.00
10:56:10:283 -> 1899.00
10:56:10:293 -> 2042.00
10:56:10:303 -> 1971.00
10:56:10:313 -> 2030.00
10:56:10:324 -> 2021.00
10:56:10:334 -> 1998.00
10:56:10:344 -> 2031.00
10:56:10:355 -> 1971.00
10:56:10:366 -> 2076.00
10:56:10:376 -> 1912.00
10:56:10:386 -> 2140.00
10:56:10:397 -> 1942.00
10:56:10:407 -> 2133.00
10:56:10:423 -> 1887.00
10:56:10:429 -> 2156.00
10:56:10:439 -> 1935.00
10:56:10:450 -> 2118.00
10:56:10:460 -> 1917.00
10:56:10:471 -> 2154.00
10:56:10:481 -> 1944.00
10:56:10:492 -> 2073.00
10:56:10:502 -> 2100.00
10:56:10:512 -> 2085.00
10:56:10:523 -> 1908.00
10:56:10:533 -> 2067.00
10:56:10:544 -> 1974.00
10:56:10:554 -> 2018.00
10:56:10:564 -> 2043.00
10:56:10:576 -> 1977.00
10:56:10:586 -> 2111.00
10:56:10:596 -> 1908.00
10:56:10:615 -> 2090.00
10:56:10:617 -> 1933.00
10:56:10:627 -> 2142.00
10:56:10:637 -> 1907.00
10:56:10:648 -> 2160.00
10:56:10:659 -> 1912.00
10:56:10:669 -> 2165.00
10:56:10:679 -> 1899.00
10:56:10:690 -> 2111.00
10:56:10:700 -> 1927.00
10:56:10:711 -> 2145.00
10:56:10:721 -> 1946.00
10:56:10:731 -> 2085.00
10:56:10:741 -> 1957.00
10:56:10:752 -> 2088.00
10:56:10:762 -> 2052.00
10:56:10:772 -> 2073.00
10:56:10:783 -> 1885.00
10:56:10:793 -> 2044.00
10:56:10:803 -> 1977.00
10:56:10:813 -> 2011.00
10:56:10:824 -> 2030.00
10:56:10:834 -> 2003.00
10:56:10:845 -> 2056.00
10:56:10:856 -> 1981.00
10:56:10:867 -> 2138.00
10:56:10:877 -> 1917.00
10:56:10:890 -> 2128.00
10:56:10:898 -> 1859.00
10:56:10:908 -> 2114.00
10:56:10:919 -> 1881.00
10:56:10:929 -> 2136.00
10:56:10:940 -> 1915.00
10:56:10:950 -> 2119.00
10:56:10:961 -> 1934.00
10:56:10:971 -> 2102.00
10:56:10:982 -> 1953.00
10:56:10:992 -> 2060.00
10:56:11:002 -> 1879.00
10:56:11:013 -> 2064.00
10:56:11:035 -> 1996.00
10:56:11:048 -> 2026.00
10:56:11:048 -> 2007.00
10:56:11:054 -> 2026.00
10:56:11:068 -> 2003.00
10:56:11:075 -> 1984.00
10:56:11:085 -> 2069.00
10:56:11:095 -> 2013.00
10:56:11:106 -> 2078.00
10:56:11:135 -> 1955.00
10:56:11:136 -> 2088.00
10:56:11:137 -> 1943.00
10:56:11:146 -> 2159.00
10:56:11:157 -> 1920.00
10:56:11:168 -> 2129.00
10:56:11:178 -> 1855.00
10:56:11:188 -> 2149.00
10:56:11:199 -> 1949.00
10:56:11:209 -> 2183.00
10:56:11:224 -> 1919.00
10:56:11:230 -> 2139.00
10:56:11:240 -> 1966.00
10:56:11:250 -> 2095.00
10:56:11:261 -> 1953.00
10:56:11:271 -> 2077.00
10:56:11:282 -> 1949.00
10:56:11:292 -> 2103.00
10:56:11:302 -> 1964.00
10:56:11:312 -> 2043.00
10:56:11:322 -> 1937.00
10:56:11:333 -> 2017.00
10:56:11:343 -> 2062.00
10:56:11:354 -> 2015.00
10:56:11:364 -> 2038.00
10:56:11:374 -> 1969.00
10:56:11:385 -> 2046.00
10:56:11:395 -> 1950.00
10:56:11:406 -> 2047.00
10:56:11:416 -> 1960.00
10:56:11:426 -> 2098.00
10:56:11:436 -> 1920.00
10:56:11:447 -> 2125.00
10:56:11:457 -> 1922.00
10:56:11:467 -> 2144.00
10:56:11:478 -> 1913.00
10:56:11:488 -> 2117.00
10:56:11:499 -> 1882.00
10:56:11:509 -> 2135.00
10:56:11:519 -> 1952.00
10:56:11:530 -> 2131.00
10:56:11:540 -> 1920.00
10:56:11:550 -> 2103.00
10:56:11:561 -> 1940.00
10:56:11:571 -> 2060.00
10:56:11:581 -> 2004.00
10:56:11:591 -> 2036.00
10:56:11:602 -> 1930.00
10:56:11:613 -> 2057.00
10:56:11:623 -> 1995.00
10:56:11:633 -> 2025.00
10:56:11:658 -> 1976.00
10:56:11:658 -> 1984.00
10:56:11:665 -> 2063.00
10:56:11:675 -> 1924.00
10:56:11:685 -> 2111.00
10:56:11:696 -> 1960.00
10:56:11:706 -> 2129.00
10:56:11:717 -> 1892.00
10:56:11:727 -> 2134.00
10:56:11:737 -> 1926.00
10:56:11:748 -> 2136.00
10:56:11:758 -> 1931.00
10:56:11:769 -> 2103.00
10:56:11:779 -> 1940.00
10:56:11:789 -> 2163.00
10:56:11:800 -> 1956.00
10:56:11:810 -> 2130.00
10:56:11:820 -> 1921.00
10:56:11:831 -> 2102.00
10:56:11:841 -> 1985.00
10:56:11:851 -> 2055.00
10:56:11:862 -> 2086.00
10:56:11:872 -> 2054.00
10:56:11:883 -> 1990.00
10:56:11:893 -> 2029.00
10:56:11:903 -> 2033.00
10:56:11:913 -> 1971.00
10:56:11:924 -> 2063.00
10:56:11:934 -> 1963.00
10:56:11:944 -> 2045.00
10:56:11:955 -> 1959.00
10:56:11:965 -> 2131.00
10:56:11:976 -> 1949.00
10:56:11:986 -> 2134.00
10:56:11:997 -> 1902.00
10:56:12:007 -> 2146.00
10:56:12:017 -> 1920.00
10:56:12:027 -> 2116.00
10:56:12:038 -> 1912.00
10:56:12:049 -> 2077.00
10:56:12:060 -> 1932.00
10:56:12:072 -> 2099.00
10:56:12:081 -> 1895.00
10:56:12:091 -> 2076.00
10:56:12:128 -> 1901.00
10:56:12:129 -> 2042.00
10:56:12:129 -> 1785.00
10:56:12:132 -> 2036.00
10:56:12:142 -> 1947.00
10:56:12:153 -> 1876.00
10:56:12:173 -> 2043.00
10:56:12:173 -> 1885.00
10:56:12:183 -> 2174.00
10:56:12:194 -> 1679.00
10:56:12:204 -> 2292.00
10:56:12:216 -> 1916.00
10:56:12:226 -> 2090.00
10:56:12:236 -> 1938.00
10:56:12:246 -> 2136.00
10:56:12:256 -> 2055.00
10:56:12:267 -> 2197.00
10:56:12:277 -> 1878.00
10:56:12:287 -> 1947.00
10:56:12:298 -> 1945.00
10:56:12:309 -> 2180.00
10:56:12:319 -> 2196.00
10:56:12:329 -> 1897.00
10:56:12:339 -> 2043.00
10:56:12:350 -> 2188.00
10:56:12:360 -> 1943.00
10:56:12:371 -> 2020.00
10:56:12:381 -> 1938.00
10:56:12:391 -> 1963.00
10:56:12:404 -> 1945.00
10:56:12:412 -> 2176.00
10:56:12:422 -> 1953.00
10:56:12:433 -> 2142.00
10:56:12:444 -> 1930.00
10:56:12:454 -> 2062.00
10:56:12:464 -> 2052.00
10:56:12:474 -> 1999.00
10:56:12:484 -> 2100.00
10:56:12:495 -> 1966.00
10:56:12:505 -> 2263.00
10:56:12:515 -> 1855.00
10:56:12:526 -> 2249.00
10:56:12:536 -> 1925.00
10:56:12:547 -> 2160.00
10:56:12:557 -> 1971.00
10:56:12:567 -> 2181.00
10:56:12:578 -> 1932.00
10:56:12:588 -> 2108.00
10:56:12:598 -> 1981.00
10:56:12:608 -> 1996.00
10:56:12:618 -> 1968.00
10:56:12:629 -> 1968.00
10:56:12:639 -> 1983.00
10:56:12:650 -> 2141.00
10:56:12:660 -> 1921.00
10:56:12:670 -> 2052.00
10:56:12:689 -> 1989.00
10:56:12:691 -> 2020.00
10:56:12:705 -> 1865.00
10:56:12:712 -> 2114.00
10:56:12:723 -> 1999.00
10:56:12:733 -> 1877.00
10:56:12:744 -> 1999.00
10:56:12:754 -> 1992.00
10:56:12:765 -> 2089.00
10:56:12:775 -> 1945.00
10:56:12:785 -> 2182.00
10:56:12:796 -> 1869.00
10:56:12:806 -> 2156.00
10:56:12:816 -> 1838.00
10:56:12:828 -> 2112.00
10:56:12:839 -> 2023.00
10:56:12:849 -> 2076.00
10:56:12:860 -> 1869.00
10:56:12:870 -> 2166.00
10:56:12:880 -> 1920.00
10:56:12:890 -> 2194.00
10:56:12:925 -> 1867.00
10:56:12:925 -> 2034.00
10:56:12:925 -> 1947.00
10:56:12:932 -> 2050.00
10:56:12:942 -> 1940.00
10:56:12:952 -> 2067.00
10:56:12:963 -> 1954.00
10:56:12:973 -> 2040.00
10:56:12:983 -> 2025.00
10:56:12:993 -> 1905.00
10:56:13:003 -> 2103.00
10:56:13:014 -> 1962.00
10:56:13:024 -> 2105.00
10:56:13:034 -> 1974.00
10:56:13:045 -> 2103.00
10:56:13:055 -> 1935.00
10:56:13:065 -> 2177.00
10:56:13:076 -> 1921.00
10:56:13:086 -> 2144.00
10:56:13:096 -> 1921.00
10:56:13:107 -> 2113.00
10:56:13:117 -> 1905.00
10:56:13:127 -> 2114.00
10:56:13:138 -> 1892.00
10:56:13:148 -> 2156.00
10:56:13:158 -> 1944.00
10:56:13:169 -> 2128.00
10:56:13:179 -> 1913.00
10:56:13:204 -> 2070.00
10:56:13:204 -> 1897.00
10:56:13:210 -> 2107.00
10:56:13:220 -> 1984.00
10:56:13:231 -> 2027.00
10:56:13:241 -> 2044.00
10:56:13:251 -> 1991.00
10:56:13:262 -> 1969.00
10:56:13:272 -> 2013.00
10:56:13:282 -> 1999.00
10:56:13:293 -> 2049.00
10:56:13:303 -> 2028.00
10:56:13:313 -> 1980.00
10:56:13:324 -> 2070.00
10:56:13:334 -> 1977.00
10:56:13:346 -> 2100.00
10:56:13:356 -> 1883.00
10:56:13:366 -> 2118.00
10:56:13:377 -> 1911.00
10:56:13:387 -> 2123.00
10:56:13:397 -> 1914.00
10:56:13:407 -> 2133.00
10:56:13:418 -> 1922.00
10:56:13:428 -> 2140.00
10:56:13:438 -> 1930.00
10:56:13:449 -> 2130.00
10:56:13:459 -> 1914.00
10:56:13:469 -> 2142.00
10:56:13:480 -> 1914.00
10:56:13:490 -> 2091.00
10:56:13:500 -> 2023.00
10:56:13:512 -> 2071.00
10:56:13:523 -> 2015.00
10:56:13:534 -> 2008.00
10:56:13:544 -> 2062.00
10:56:13:554 -> 1956.00
10:56:13:564 -> 2072.00
10:56:13:575 -> 1956.00
10:56:13:585 -> 2089.00
10:56:13:595 -> 1929.00
10:56:13:605 -> 2156.00
10:56:13:616 -> 1913.00
10:56:13:626 -> 2142.00
10:56:13:636 -> 1919.00
10:56:13:647 -> 2164.00
10:56:13:657 -> 1905.00
10:56:13:667 -> 2168.00
10:56:13:678 -> 1928.00
10:56:13:688 -> 2119.00
10:56:13:699 -> 1948.00
10:56:13:725 -> 2092.00
10:56:13:725 -> 1929.00
10:56:13:731 -> 2088.00
10:56:13:741 -> 1928.00
10:56:13:751 -> 2046.00
10:56:13:762 -> 1977.00
10:56:13:772 -> 2025.00
10:56:13:782 -> 2038.00
10:56:13:793 -> 1981.00
10:56:13:803 -> 2071.00
10:56:13:813 -> 1954.00
10:56:13:824 -> 2110.00
10:56:13:834 -> 1960.00
10:56:13:844 -> 2124.00
10:56:13:855 -> 1939.00
10:56:13:865 -> 2169.00
10:56:13:875 -> 1892.00
10:56:13:886 -> 2145.00
10:56:13:896 -> 1936.00
10:56:13:906 -> 2153.00
10:56:13:917 -> 1942.00
10:56:13:927 -> 2110.00
10:56:13:937 -> 1920.00
10:56:13:947 -> 2149.00
10:56:13:958 -> 1947.00
10:56:13:968 -> 2131.00
10:56:13:978 -> 1941.00
10:56:13:989 -> 2104.00
10:56:13:999 -> 1915.00
10:56:14:009 -> 2081.00
10:56:14:019 -> 1950.00
10:56:14:030 -> 2101.00
10:56:14:040 -> 2072.00
10:56:14:051 -> 2058.00
10:56:14:061 -> 1903.00
10:56:14:071 -> 2051.00
10:56:14:081 -> 1941.00
10:56:14:092 -> 2014.00
10:56:14:123 -> 2018.00
10:56:14:124 -> 2018.00
10:56:14:124 -> 2043.00
10:56:14:133 -> 1993.00
10:56:14:143 -> 2060.00
10:56:14:154 -> 1928.00
10:56:14:164 -> 2069.00
10:56:14:174 -> 1963.00
10:56:14:185 -> 2118.00
10:56:14:195 -> 1942.00
10:56:14:205 -> 2124.00
10:56:14:216 -> 1964.00
10:56:14:240 -> 2161.00
10:56:14:241 -> 1885.00
10:56:14:247 -> 2125.00
10:56:14:257 -> 1949.00
10:56:14:268 -> 2139.00
10:56:14:278 -> 1914.00
10:56:14:288 -> 2194.00
10:56:14:298 -> 1910.00
10:56:14:309 -> 2100.00
10:56:14:320 -> 2105.00
10:56:14:330 -> 2123.00
10:56:14:340 -> 1934.00
10:56:14:351 -> 2018.00
10:56:14:362 -> 1908.00
10:56:14:372 -> 2017.00
10:56:14:382 -> 2026.00
10:56:14:392 -> 1937.00
10:56:14:403 -> 2129.00
10:56:14:413 -> 1961.00
10:56:14:423 -> 2104.00
10:56:14:434 -> 1827.00
10:56:14:444 -> 2083.00
10:56:14:454 -> 1858.00
10:56:14:465 -> 2014.00
10:56:14:475 -> 1944.00
10:56:14:485 -> 2247.00
10:56:14:495 -> 1826.00
10:56:14:506 -> 2237.00
10:56:14:517 -> 2082.00
10:56:14:527 -> 2161.00
10:56:14:537 -> 1940.00
10:56:14:548 -> 2031.00
10:56:14:558 -> 1922.00
10:56:14:568 -> 2081.00
10:56:14:579 -> 1987.00
10:56:14:589 -> 2232.00
10:56:14:599 -> 1770.00
10:56:14:610 -> 2241.00
10:56:14:620 -> 1797.00
10:56:14:631 -> 1996.00
10:56:14:641 -> 1841.00
10:56:14:651 -> 2155.00
10:56:14:661 -> 2219.00
10:56:14:672 -> 1972.00
10:56:14:683 -> 2222.00
10:56:14:693 -> 1897.00
10:56:14:703 -> 2158.00
10:56:14:714 -> 1859.00
10:56:14:724 -> 2171.00
10:56:14:735 -> 2072.00
10:56:14:761 -> 2035.00
10:56:14:762 -> 2003.00
10:56:14:767 -> 2123.00
10:56:14:779 -> 1988.00
10:56:14:789 -> 2052.00
10:56:14:800 -> 2133.00
10:56:14:810 -> 1981.00
10:56:14:820 -> 2125.00
10:56:14:830 -> 2005.00
10:56:14:841 -> 1971.00
10:56:14:851 -> 1934.00
10:56:14:861 -> 1999.00
10:56:14:872 -> 1907.00
10:56:14:883 -> 2066.00
10:56:14:893 -> 2033.00
10:56:14:903 -> 2014.00
10:56:14:914 -> 2010.00
10:56:14:924 -> 2016.00
10:56:14:938 -> 2044.00
10:56:14:945 -> 2103.00
10:56:14:955 -> 1879.00
10:56:14:966 -> 2138.00
10:56:14:976 -> 1935.00
10:56:14:986 -> 2125.00
10:56:14:997 -> 1995.00
10:56:15:008 -> 2114.00
10:56:15:019 -> 1944.00
10:56:15:029 -> 2027.00
10:56:15:040 -> 2082.00
10:56:15:050 -> 1747.00
10:56:15:060 -> 2230.00
10:56:15:071 -> 1944.00
10:56:15:082 -> 1976.00
10:56:15:092 -> 2008.00
10:56:15:102 -> 2065.00
10:56:15:113 -> 2062.00
10:56:15:123 -> 2074.00
10:56:15:133 -> 1970.00
10:56:15:143 -> 2003.00
10:56:15:154 -> 1958.00
10:56:15:165 -> 2183.00
10:56:15:175 -> 1865.00
10:56:15:185 -> 2100.00
10:56:15:196 -> 1962.00
10:56:15:230 -> 2166.00
10:56:15:231 -> 1942.00
10:56:15:231 -> 2143.00
10:56:15:237 -> 1825.00
10:56:15:247 -> 2173.00
10:56:15:257 -> 1959.00
10:56:15:284 -> 2113.00
10:56:15:285 -> 1934.00
10:56:15:288 -> 2109.00
10:56:15:298 -> 1930.00
10:56:15:309 -> 2105.00
10:56:15:319 -> 1946.00
10:56:15:330 -> 2095.00
10:56:15:340 -> 2051.00
10:56:15:350 -> 2094.00
10:56:15:360 -> 1916.00
10:56:15:371 -> 2015.00
10:56:15:381 -> 2015.00
10:56:15:392 -> 1997.00
10:56:15:402 -> 2001.00
10:56:15:412 -> 1988.00
10:56:15:423 -> 2073.00
10:56:15:433 -> 1988.00
10:56:15:443 -> 2077.00
10:56:15:455 -> 1962.00
10:56:15:465 -> 2101.00
10:56:15:475 -> 1956.00
10:56:15:485 -> 2066.00
10:56:15:495 -> 1924.00
10:56:15:506 -> 2151.00
10:56:15:516 -> 1892.00
10:56:15:527 -> 2129.00
10:56:15:537 -> 1945.00
10:56:15:547 -> 2106.00
10:56:15:558 -> 1892.00
10:56:15:568 -> 2116.00
10:56:15:578 -> 1995.00
10:56:15:588 -> 2086.00
10:56:15:599 -> 1958.00
10:56:15:609 -> 2099.00
10:56:15:620 -> 1974.00
10:56:15:630 -> 2102.00
10:56:15:640 -> 1966.00
10:56:15:650 -> 2065.00
10:56:15:662 -> 1903.00
10:56:15:672 -> 1983.00
10:56:15:683 -> 2093.00
10:56:15:694 -> 1944.00
10:56:15:704 -> 2125.00
10:56:15:714 -> 1943.00
10:56:15:724 -> 2095.00
10:56:15:734 -> 1961.00
10:56:15:745 -> 2112.00
10:56:15:756 -> 1948.00
10:56:15:767 -> 2139.00
10:56:15:777 -> 1900.00
10:56:15:805 -> 2144.00
10:56:15:806 -> 1960.00
10:56:15:808 -> 2140.00
10:56:15:818 -> 1947.00
10:56:15:829 -> 2115.00
10:56:15:839 -> 1971.00
10:56:15:850 -> 2094.00
10:56:15:860 -> 1895.00
10:56:15:870 -> 1989.00
10:56:15:881 -> 1975.00
10:56:15:891 -> 2017.00
10:56:15:901 -> 2024.00
10:56:15:912 -> 2010.00
10:56:15:923 -> 2061.00
10:56:15:933 -> 1924.00
10:56:15:944 -> 2134.00
10:56:15:954 -> 1908.00
10:56:15:964 -> 2157.00
10:56:15:975 -> 1932.00
10:56:15:985 -> 2180.00
10:56:15:995 -> 1939.00
10:56:16:006 -> 2145.00
10:56:16:016 -> 1948.00
10:56:16:027 -> 2153.00
10:56:16:037 -> 1930.00
10:56:16:047 -> 2126.00
10:56:16:058 -> 1948.00
10:56:16:068 -> 2133.00
10:56:16:078 -> 1934.00
10:56:16:089 -> 2088.00
10:56:16:099 -> 1974.00
10:56:16:109 -> 2105.00
10:56:16:119 -> 1975.00
10:56:16:130 -> 2044.00
10:56:16:140 -> 1921.00
10:56:16:150 -> 2053.00
10:56:16:161 -> 1951.00
10:56:16:171 -> 2023.00
10:56:16:181 -> 2017.00
10:56:16:192 -> 1947.00
10:56:16:202 -> 2070.00
10:56:16:212 -> 1952.00
10:56:16:223 -> 2068.00
10:56:16:233 -> 1954.00
10:56:16:244 -> 2098.00
10:56:16:254 -> 1936.00
10:56:16:264 -> 2137.00
10:56:16:275 -> 1922.00
10:56:16:286 -> 2081.00
10:56:16:296 -> 1958.00
10:56:16:324 -> 2156.00
10:56:16:325 -> 1914.00
10:56:16:326 -> 2136.00
10:56:16:337 -> 1927.00
10:56:16:348 -> 2134.00
10:56:16:358 -> 1938.00
10:56:16:369 -> 2109.00
10:56:16:379 -> 1968.00
10:56:16:412 -> 2053.00
10:56:16:413 -> 2026.00
10:56:16:413 -> 2003.00
10:56:16:420 -> 1908.00
10:56:16:430 -> 2007.00
10:56:16:441 -> 1990.00
10:56:16:451 -> 2005.00
10:56:16:462 -> 2016.00
10:56:16:472 -> 1980.00
10:56:16:482 -> 2102.00
10:56:16:493 -> 1939.00
10:56:16:503 -> 2117.00
10:56:16:513 -> 1919.00
10:56:16:524 -> 2127.00
10:56:16:535 -> 1917.00
10:56:16:544 -> 2179.00
10:56:16:555 -> 1904.00
10:56:16:565 -> 2126.00
10:56:16:576 -> 1914.00
10:56:16:586 -> 2130.00
10:56:16:597 -> 1937.00
10:56:16:607 -> 2078.00
10:56:16:618 -> 1897.00
10:56:16:628 -> 2118.00
10:56:16:638 -> 1969.00
10:56:16:649 -> 2078.00
10:56:16:659 -> 1965.00
10:56:16:669 -> 2015.00
10:56:16:680 -> 1975.00
10:56:16:690 -> 2025.00
10:56:16:700 -> 1992.00
10:56:16:711 -> 2009.00
10:56:16:721 -> 2046.00
10:56:16:731 -> 1975.00
10:56:16:742 -> 2062.00
10:56:16:752 -> 1972.00
10:56:16:762 -> 2104.00
10:56:16:773 -> 1908.00
10:56:16:784 -> 2070.00
10:56:16:794 -> 1923.00
10:56:16:804 -> 2157.00
10:56:16:815 -> 1916.00
10:56:16:838 -> 2150.00
10:56:16:839 -> 1881.00
10:56:16:846 -> 2098.00
10:56:16:856 -> 1923.00
10:56:16:866 -> 2155.00
10:56:16:877 -> 1960.00
10:56:16:887 -> 2117.00
10:56:16:897 -> 1968.00
10:56:16:908 -> 2081.00
10:56:16:918 -> 1990.00
10:56:16:930 -> 2093.00
10:56:16:940 -> 2008.00
10:56:16:950 -> 2032.00
10:56:16:961 -> 2020.00
10:56:16:971 -> 1983.00
10:56:16:982 -> 2034.00
10:56:16:992 -> 2001.00
10:56:17:002 -> 2069.00
10:56:17:013 -> 1917.00
10:56:17:023 -> 2118.00
10:56:17:033 -> 1965.00
10:56:17:044 -> 2116.00
10:56:17:054 -> 1889.00
10:56:17:066 -> 2121.00
10:56:17:076 -> 1944.00
10:56:17:086 -> 2159.00
10:56:17:098 -> 1950.00
10:56:17:108 -> 1867.00
10:56:17:119 -> 2065.00
10:56:17:129 -> 2198.00
10:56:17:139 -> 1742.00
10:56:17:150 -> 2107.00
10:56:17:160 -> 1906.00
10:56:17:170 -> 1880.00
10:56:17:181 -> 2159.00
10:56:17:191 -> 2021.00
10:56:17:201 -> 1946.00
10:56:17:212 -> 1833.00
10:56:17:222 -> 2286.00
10:56:17:233 -> 1741.00
10:56:17:244 -> 2066.00
10:56:17:254 -> 1920.00
10:56:17:264 -> 2211.00
10:56:17:274 -> 1823.00
10:56:17:285 -> 2193.00
10:56:17:295 -> 1689.00
10:56:17:305 -> 2275.00
10:56:17:316 -> 1991.00
10:56:17:327 -> 2283.00
10:56:17:337 -> 1924.00
10:56:17:356 -> 2104.00
10:56:17:358 -> 2109.00
10:56:17:368 -> 2117.00
10:56:17:378 -> 2041.00
10:56:17:388 -> 1982.00
10:56:17:398 -> 2123.00
10:56:17:410 -> 2135.00
10:56:17:420 -> 1906.00
10:56:17:430 -> 1906.00
10:56:17:440 -> 2087.00
10:56:17:471 -> 1916.00
10:56:17:472 -> 1974.00
10:56:17:472 -> 1853.00
10:56:17:481 -> 1992.00
10:56:17:491 -> 1983.00
10:56:17:503 -> 2196.00
10:56:17:512 -> 1974.00
10:56:17:523 -> 2178.00
10:56:17:533 -> 2001.00
10:56:17:543 -> 2011.00
10:56:17:555 -> 2023.00
10:56:17:564 -> 2087.00
10:56:17:574 -> 1917.00
10:56:17:584 -> 2199.00
10:56:17:595 -> 1985.00
10:56:17:605 -> 2249.00
10:56:17:616 -> 2027.00
10:56:17:626 -> 2308.00
10:56:17:636 -> 1983.00
10:56:17:647 -> 2267.00
10:56:17:657 -> 1803.00
10:56:17:667 -> 2109.00
10:56:17:678 -> 1934.00
10:56:17:688 -> 2110.00
10:56:17:698 -> 1832.00
10:56:17:709 -> 2289.00
10:56:17:719 -> 1749.00
10:56:17:729 -> 2172.00
10:56:17:739 -> 1834.00
10:56:17:750 -> 2077.00
10:56:17:760 -> 2111.00
10:56:17:770 -> 2011.00
10:56:17:781 -> 1843.00
10:56:17:791 -> 1680.00
10:56:17:802 -> 2121.00
10:56:17:812 -> 1939.00
10:56:17:823 -> 2156.00
10:56:17:834 -> 2076.00
10:56:17:844 -> 2094.00
10:56:17:854 -> 1832.00
10:56:17:879 -> 2037.00
10:56:17:879 -> 1895.00
10:56:17:885 -> 1998.00
10:56:17:895 -> 1833.00
10:56:17:906 -> 2091.00
10:56:17:916 -> 1932.00
10:56:17:926 -> 2207.00
10:56:17:937 -> 1943.00
10:56:17:947 -> 2121.00
10:56:17:957 -> 1915.00
10:56:17:968 -> 2102.00
10:56:17:978 -> 1966.00
10:56:17:989 -> 2113.00
10:56:18:000 -> 2056.00
10:56:18:010 -> 2050.00
10:56:18:020 -> 1978.00
10:56:18:031 -> 2033.00
10:56:18:041 -> 2060.00
10:56:18:056 -> 1991.00
10:56:18:062 -> 2070.00
10:56:18:072 -> 1995.00
10:56:18:082 -> 2113.00
10:56:18:093 -> 1939.00
10:56:18:103 -> 2147.00
10:56:18:114 -> 1932.00
10:56:18:124 -> 2135.00
10:56:18:134 -> 1887.00
10:56:18:145 -> 2126.00
10:56:18:155 -> 1940.00
10:56:18:165 -> 2126.00
10:56:18:176 -> 1904.00
10:56:18:186 -> 2136.00
10:56:18:197 -> 1942.00
10:56:18:207 -> 2159.00
10:56:18:217 -> 1956.00
10:56:18:256 -> 2102.00
10:56:18:257 -> 1945.00
10:56:18:257 -> 2068.00
10:56:18:258 -> 2073.00
10:56:18:269 -> 2026.00
10:56:18:279 -> 1931.00
10:56:18:289 -> 2057.00
10:56:18:300 -> 1958.00
10:56:18:310 -> 1998.00
10:56:18:320 -> 2042.00
10:56:18:331 -> 2014.00
10:56:18:341 -> 2061.00
10:56:18:351 -> 1958.00
10:56:18:362 -> 2112.00
10:56:18:372 -> 1926.00
10:56:18:396 -> 2095.00
10:56:18:396 -> 1945.00
10:56:18:403 -> 2125.00
10:56:18:413 -> 1925.00
10:56:18:423 -> 2136.00
10:56:18:434 -> 1906.00
10:56:18:444 -> 2122.00
10:56:18:454 -> 1956.00
10:56:18:466 -> 2142.00
10:56:18:476 -> 1973.00
10:56:18:489 -> 2122.00
10:56:18:498 -> 1941.00
10:56:18:508 -> 2046.00
10:56:18:518 -> 2013.00
10:56:18:529 -> 2020.00
10:56:18:539 -> 1927.00
10:56:18:550 -> 2005.00
10:56:18:560 -> 2015.00
10:56:18:570 -> 2014.00
10:56:18:581 -> 2036.00
10:56:18:591 -> 1987.00
10:56:18:601 -> 2010.00
10:56:18:612 -> 1921.00
10:56:18:622 -> 2092.00
10:56:18:632 -> 1935.00
10:56:18:643 -> 2137.00
10:56:18:653 -> 1933.00
10:56:18:663 -> 2141.00
10:56:18:674 -> 1931.00
10:56:18:684 -> 2129.00
10:56:18:695 -> 1937.00
10:56:18:707 -> 2134.00
10:56:18:715 -> 1922.00
10:56:18:726 -> 2144.00
10:56:18:736 -> 1953.00
10:56:18:747 -> 2070.00
10:56:18:757 -> 1937.00
10:56:18:767 -> 2132.00
10:56:18:778 -> 1981.00
10:56:18:788 -> 2040.00
10:56:18:799 -> 2011.00
10:56:18:809 -> 2030.00
10:56:18:819 -> 1990.00
10:56:18:835 -> 2009.00
10:56:18:840 -> 2016.00
10:56:18:851 -> 1950.00
10:56:18:861 -> 2076.00
10:56:18:871 -> 1963.00
10:56:18:882 -> 2046.00
10:56:18:892 -> 1923.00
10:56:18:917 -> 2151.00
10:56:18:918 -> 1946.00
10:56:18:923 -> 2155.00
10:56:18:934 -> 1897.00
10:56:18:944 -> 2143.00
10:56:18:954 -> 1908.00
10:56:18:966 -> 2130.00
10:56:18:976 -> 1945.00
10:56:18:986 -> 2110.00
10:56:18:997 -> 1928.00
10:56:19:007 -> 2117.00
10:56:19:017 -> 1968.00
10:56:19:027 -> 2079.00
10:56:19:038 -> 1989.00
10:56:19:049 -> 2049.00
10:56:19:060 -> 1988.00
10:56:19:070 -> 1982.00
10:56:19:080 -> 2063.00
10:56:19:091 -> 1971.00
10:56:19:101 -> 2066.00
10:56:19:112 -> 1932.00
10:56:19:123 -> 2135.00
10:56:19:133 -> 1946.00
10:56:19:143 -> 2160.00
10:56:19:154 -> 1881.00
10:56:19:164 -> 2154.00
10:56:19:197 -> 1899.00
10:56:19:197 -> 2088.00
10:56:19:197 -> 1921.00
10:56:19:205 -> 2147.00
10:56:19:216 -> 1933.00
10:56:19:226 -> 2146.00
10:56:19:236 -> 2004.00
10:56:19:247 -> 2122.00
10:56:19:257 -> 1974.00
10:56:19:267 -> 2077.00
10:56:19:277 -> 2010.00
10:56:19:288 -> 2091.00
10:56:19:298 -> 2105.00
10:56:19:309 -> 2059.00
10:56:19:320 -> 1908.00
10:56:19:330 -> 2056.00
10:56:19:340 -> 2068.00
10:56:19:350 -> 1945.00
10:56:19:361 -> 2095.00
10:56:19:371 -> 1960.00
10:56:19:381 -> 2073.00
10:56:19:391 -> 1999.00
10:56:19:402 -> 2043.00
10:56:19:412 -> 1992.00
10:56:19:436 -> 2139.00
10:56:19:436 -> 1860.00
10:56:19:443 -> 2120.00
10:56:19:453 -> 1913.00
10:56:19:464 -> 2031.00
10:56:19:474 -> 1906.00
10:56:19:485 -> 2035.00
10:56:19:495 -> 1903.00
10:56:19:505 -> 2092.00
10:56:19:516 -> 1952.00
10:56:19:527 -> 2260.00
10:56:19:537 -> 2232.00
10:56:19:548 -> 2080.00
10:56:19:558 -> 1959.00
10:56:19:568 -> 1895.00
10:56:19:580 -> 2067.00
10:56:19:591 -> 2059.00
10:56:19:601 -> 2282.00
10:56:19:611 -> 1992.00
10:56:19:622 -> 2119.00
10:56:19:632 -> 1847.00
10:56:19:642 -> 2170.00
10:56:19:653 -> 1962.00
10:56:19:664 -> 2212.00
10:56:19:674 -> 1879.00
10:56:19:688 -> 2034.00
10:56:19:696 -> 1991.00
10:56:19:706 -> 2210.00
10:56:19:717 -> 1763.00
10:56:19:727 -> 2111.00
10:56:19:738 -> 2037.00
10:56:19:748 -> 1989.00
10:56:19:758 -> 1900.00
10:56:19:769 -> 1967.00
10:56:19:779 -> 2146.00
10:56:19:789 -> 2093.00
10:56:19:800 -> 2094.00
10:56:19:810 -> 2053.00
10:56:19:821 -> 2092.00
10:56:19:831 -> 1901.00
10:56:19:841 -> 2178.00
10:56:19:853 -> 2054.00
10:56:19:862 -> 1896.00
10:56:19:872 -> 2047.00
10:56:19:883 -> 2292.00
10:56:19:893 -> 1883.00
10:56:19:904 -> 2373.00
10:56:19:914 -> 1741.00
10:56:19:924 -> 2165.00
10:56:19:935 -> 2001.00
10:56:19:951 -> 2075.00
10:56:19:955 -> 2009.00
10:56:19:966 -> 2148.00
10:56:19:976 -> 1871.00
10:56:19:987 -> 2096.00
10:56:19:997 -> 1889.00
10:56:20:007 -> 2218.00
10:56:20:018 -> 1892.00
10:56:20:028 -> 2028.00
10:56:20:039 -> 1896.00
10:56:20:049 -> 2007.00
10:56:20:059 -> 1827.00
10:56:20:070 -> 2058.00
10:56:20:080 -> 2184.00
10:56:20:090 -> 1837.00
10:56:20:101 -> 2154.00
10:56:20:111 -> 1868.00
10:56:20:121 -> 2071.00
10:56:20:132 -> 1970.00
10:56:20:142 -> 2219.00
10:56:20:153 -> 1963.00
10:56:20:164 -> 2123.00
10:56:20:174 -> 1944.00
10:56:20:184 -> 2170.00
10:56:20:196 -> 1954.00
10:56:20:206 -> 2215.00
10:56:20:216 -> 1942.00
10:56:20:229 -> 2107.00
10:56:20:260 -> 1988.00
10:56:20:260 -> 2212.00
10:56:20:260 -> 1880.00
10:56:20:267 -> 2115.00
10:56:20:278 -> 2084.00
10:56:20:288 -> 2134.00
10:56:20:298 -> 1938.00
10:56:20:309 -> 2055.00
10:56:20:319 -> 1934.00
10:56:20:329 -> 2000.00
10:56:20:344 -> 2024.00
10:56:20:350 -> 2134.00
10:56:20:360 -> 2063.00
10:56:20:370 -> 2007.00
10:56:20:381 -> 2088.00
10:56:20:391 -> 1963.00
10:56:20:401 -> 2080.00
10:56:20:412 -> 1947.00
10:56:20:422 -> 2170.00
10:56:20:432 -> 1953.00
10:56:20:443 -> 2143.00
10:56:20:464 -> 1905.00
10:56:20:466 -> 2113.00
10:56:20:473 -> 1894.00
10:56:20:488 -> 2106.00
10:56:20:494 -> 1938.00
10:56:20:504 -> 2114.00
10:56:20:514 -> 1928.00
10:56:20:525 -> 2119.00
10:56:20:535 -> 1951.00
10:56:20:545 -> 2126.00
10:56:20:556 -> 1966.00
10:56:20:566 -> 2185.00
10:56:20:577 -> 1922.00
10:56:20:587 -> 2071.00
10:56:20:598 -> 1939.00
10:56:20:608 -> 2107.00
10:56:20:618 -> 1916.00
10:56:20:629 -> 2052.00
10:56:20:640 -> 1965.00
10:56:20:650 -> 2046.00
10:56:20:660 -> 2033.00
10:56:20:670 -> 1979.00
10:56:20:681 -> 2058.00
10:56:20:691 -> 1918.00
10:56:20:701 -> 2079.00
10:56:20:712 -> 1945.00
10:56:20:722 -> 2127.00
10:56:20:732 -> 1927.00
10:56:20:743 -> 2148.00
10:56:20:753 -> 1907.00
10:56:20:763 -> 2150.00
10:56:20:773 -> 1884.00
10:56:20:784 -> 2179.00
10:56:20:796 -> 1909.00
10:56:20:806 -> 2137.00
10:56:20:817 -> 1935.00
10:56:20:827 -> 2005.00
10:56:20:837 -> 2083.00
10:56:20:848 -> 2062.00
10:56:20:858 -> 1870.00
10:56:20:868 -> 2017.00
10:56:20:879 -> 1996.00
10:56:20:889 -> 2063.00
10:56:20:900 -> 2039.00
10:56:20:910 -> 1971.00
10:56:20:923 -> 2060.00
10:56:20:931 -> 1920.00
10:56:20:941 -> 2095.00
10:56:20:951 -> 1918.00
10:56:20:962 -> 2098.00
10:56:20:978 -> 1944.00
10:56:20:982 -> 2133.00
10:56:20:993 -> 1909.00
10:56:21:027 -> 2166.00
10:56:21:033 -> 1888.00
10:56:21:033 -> 2120.00
10:56:21:034 -> 1941.00
10:56:21:044 -> 2080.00
10:56:21:055 -> 1967.00
10:56:21:065 -> 2144.00
10:56:21:076 -> 1944.00
10:56:21:086 -> 2109.00
10:56:21:096 -> 1981.00
10:56:21:107 -> 2052.00
10:56:21:117 -> 1993.00
10:56:21:129 -> 2087.00
10:56:21:138 -> 1991.00
10:56:21:148 -> 2039.00
10:56:21:158 -> 1931.00
10:56:21:169 -> 1998.00
10:56:21:180 -> 1995.00
10:56:21:190 -> 1955.00
10:56:21:200 -> 2085.00
10:56:21:210 -> 1937.00
10:56:21:220 -> 2084.00
10:56:21:231 -> 1935.00
10:56:21:242 -> 2158.00
10:56:21:254 -> 1922.00
10:56:21:263 -> 2139.00
10:56:21:274 -> 1909.00
10:56:21:284 -> 2134.00
10:56:21:295 -> 1908.00
10:56:21:305 -> 2096.00
10:56:21:315 -> 1958.00
10:56:21:326 -> 2074.00
10:56:21:336 -> 1951.00
10:56:21:346 -> 2074.00
10:56:21:357 -> 1957.00
10:56:21:367 -> 2036.00
10:56:21:378 -> 1977.00
10:56:21:388 -> 2047.00
10:56:21:400 -> 1987.00
10:56:21:410 -> 1979.00
10:56:21:420 -> 2098.00
10:56:21:431 -> 1930.00
10:56:21:441 -> 2098.00
10:56:21:455 -> 1945.00
10:56:21:462 -> 2088.00
10:56:21:472 -> 1908.00
10:56:21:492 -> 2132.00
10:56:21:493 -> 1913.00
10:56:21:503 -> 2189.00
10:56:21:513 -> 1882.00
10:56:21:524 -> 2076.00
10:56:21:534 -> 1925.00
10:56:21:545 -> 2132.00
10:56:21:555 -> 1892.00
10:56:21:565 -> 2026.00
10:56:21:576 -> 1955.00
10:56:21:586 -> 2076.00
10:56:21:597 -> 1970.00
10:56:21:607 -> 2052.00
10:56:21:617 -> 2000.00
10:56:21:627 -> 2033.00
10:56:21:638 -> 1914.00
10:56:21:649 -> 2022.00
10:56:21:659 -> 2048.00
10:56:21:669 -> 1962.00
10:56:21:681 -> 2057.00
10:56:21:691 -> 1946.00
10:56:21:701 -> 2105.00
10:56:21:712 -> 1950.00
10:56:21:722 -> 2154.00
10:56:21:732 -> 1919.00
10:56:21:743 -> 2123.00
10:56:21:753 -> 1857.00
10:56:21:764 -> 2127.00
10:56:21:774 -> 1954.00
10:56:21:784 -> 2144.00
10:56:21:796 -> 1990.00
10:56:21:805 -> 2155.00
10:56:21:816 -> 1940.00
10:56:21:825 -> 1989.00
10:56:21:836 -> 2109.00
10:56:21:846 -> 1938.00
10:56:21:856 -> 1997.00
10:56:21:867 -> 2008.00
10:56:21:878 -> 1986.00
10:56:21:888 -> 2167.00
10:56:21:899 -> 1864.00
10:56:21:909 -> 1962.00
10:56:21:919 -> 1903.00
10:56:21:930 -> 2013.00
10:56:21:940 -> 2241.00
10:56:21:950 -> 2100.00
10:56:21:961 -> 2151.00
10:56:21:971 -> 1785.00
10:56:21:981 -> 2075.00
10:56:22:006 -> 1958.00
10:56:22:008 -> 2254.00
10:56:22:013 -> 1718.00
10:56:22:023 -> 2377.00
10:56:22:037 -> 1892.00
10:56:22:044 -> 2180.00
10:56:22:054 -> 2086.00
10:56:22:065 -> 2126.00
10:56:22:075 -> 1756.00
10:56:22:085 -> 2091.00
10:56:22:096 -> 2104.00
10:56:22:109 -> 1978.00
10:56:22:117 -> 1893.00
10:56:22:127 -> 1721.00
10:56:22:137 -> 2166.00
10:56:22:147 -> 1912.00
10:56:22:181 -> 2026.00
10:56:22:182 -> 2081.00
10:56:22:182 -> 2104.00
10:56:22:189 -> 2097.00
10:56:22:199 -> 1910.00
10:56:22:209 -> 1933.00
10:56:22:221 -> 2129.00
10:56:22:230 -> 1786.00
10:56:22:240 -> 2002.00
10:56:22:250 -> 2055.00
10:56:22:262 -> 2070.00
10:56:22:271 -> 1927.00
10:56:22:281 -> 2391.00
10:56:22:292 -> 1932.00
10:56:22:303 -> 2181.00
10:56:22:313 -> 1828.00
10:56:22:323 -> 2083.00
10:56:22:333 -> 1891.00
10:56:22:344 -> 2075.00
10:56:22:354 -> 1958.00
10:56:22:364 -> 2047.00
10:56:22:374 -> 1965.00
10:56:22:389 -> 2160.00
10:56:22:395 -> 1972.00
10:56:22:405 -> 2116.00
10:56:22:416 -> 1820.00
10:56:22:427 -> 2123.00
10:56:22:436 -> 2053.00
10:56:22:447 -> 2116.00
10:56:22:457 -> 2048.00
10:56:22:468 -> 1962.00
10:56:22:479 -> 2043.00
10:56:22:489 -> 1944.00
10:56:22:499 -> 2117.00
10:56:22:524 -> 2030.00
10:56:22:524 -> 2104.00
10:56:22:530 -> 1961.00
10:56:22:541 -> 2096.00
10:56:22:551 -> 1912.00
10:56:22:561 -> 2065.00
10:56:22:574 -> 1947.00
10:56:22:582 -> 2162.00
10:56:22:593 -> 1938.00
10:56:22:603 -> 2142.00
10:56:22:614 -> 1969.00
10:56:22:624 -> 2128.00
10:56:22:634 -> 1949.00
10:56:22:645 -> 2072.00
10:56:22:655 -> 1855.00
10:56:22:666 -> 2124.00
10:56:22:676 -> 1945.00
10:56:22:686 -> 2146.00
10:56:22:696 -> 2009.00
10:56:22:707 -> 2076.00
10:56:22:717 -> 2108.00
10:56:22:727 -> 2050.00
10:56:22:738 -> 1932.00
10:56:22:748 -> 2001.00
10:56:22:758 -> 2017.00
10:56:22:769 -> 1960.00
10:56:22:779 -> 2050.00
10:56:22:789 -> 1980.00
10:56:22:800 -> 2124.00
10:56:22:810 -> 1935.00
10:56:22:821 -> 2115.00
10:56:22:831 -> 1922.00
10:56:22:842 -> 2140.00
10:56:22:852 -> 1917.00
10:56:22:862 -> 2118.00
10:56:22:873 -> 1912.00
10:56:22:883 -> 2162.00
10:56:22:893 -> 1896.00
10:56:22:904 -> 2127.00
10:56:22:914 -> 1935.00
10:56:22:925 -> 2193.00
10:56:22:935 -> 1878.00
10:56:22:945 -> 2155.00
10:56:22:986 -> 1924.00
10:56:22:992 -> 2090.00
10:56:22:992 -> 1973.00
10:56:22:992 -> 2032.00
10:56:22:997 -> 1945.00
10:56:23:008 -> 2003.00
10:56:23:018 -> 1956.00
10:56:23:043 -> 2004.00
10:56:23:044 -> 2036.00
10:56:23:049 -> 1968.00
10:56:23:059 -> 2100.00
10:56:23:070 -> 1944.00
10:56:23:080 -> 2140.00
10:56:23:090 -> 1897.00
10:56:23:101 -> 2124.00
10:56:23:111 -> 1949.00
10:56:23:122 -> 2167.00
10:56:23:133 -> 1941.00
10:56:23:143 -> 2125.00
10:56:23:153 -> 1938.00
10:56:23:164 -> 2126.00
10:56:23:174 -> 1941.00
10:56:23:184 -> 2106.00
10:56:23:195 -> 1954.00
10:56:23:205 -> 2105.00
10:56:23:217 -> 1981.00
10:56:23:226 -> 2087.00
10:56:23:236 -> 2027.00
10:56:23:246 -> 2036.00
10:56:23:257 -> 1962.00
10:56:23:267 -> 2019.00
10:56:23:278 -> 1928.00
10:56:23:288 -> 2026.00
10:56:23:298 -> 2033.00
10:56:23:309 -> 1995.00
10:56:23:320 -> 2077.00
10:56:23:330 -> 1964.00
10:56:23:340 -> 2117.00
10:56:23:350 -> 1930.00
10:56:23:361 -> 2160.00
10:56:23:372 -> 1866.00
10:56:23:382 -> 2168.00
10:56:23:392 -> 1909.00
10:56:23:402 -> 2136.00
10:56:23:413 -> 1891.00
10:56:23:423 -> 2138.00
10:56:23:433 -> 1955.00
10:56:23:445 -> 2129.00
10:56:23:454 -> 1934.00
10:56:23:464 -> 2144.00
10:56:23:475 -> 1900.00
10:56:23:485 -> 2094.00
10:56:23:496 -> 1967.00
10:56:23:506 -> 2086.00
10:56:23:516 -> 1960.00
10:56:23:527 -> 2034.00
10:56:23:537 -> 1952.00
10:56:23:579 -> 1986.00
10:56:23:579 -> 2006.00
10:56:23:579 -> 2001.00
10:56:23:579 -> 2061.00
10:56:23:589 -> 1992.00
10:56:23:600 -> 2102.00
10:56:23:610 -> 1953.00
10:56:23:623 -> 2090.00
10:56:23:631 -> 1939.00
10:56:23:641 -> 2177.00
10:56:23:651 -> 1946.00
10:56:23:662 -> 2081.00
10:56:23:672 -> 1906.00
10:56:23:682 -> 2138.00
10:56:23:693 -> 1894.00
10:56:23:703 -> 2148.00
10:56:23:713 -> 1934.00
10:56:23:724 -> 2118.00
10:56:23:734 -> 1968.00
10:56:23:744 -> 2094.00
10:56:23:754 -> 1918.00
10:56:23:765 -> 2177.00
10:56:23:775 -> 1958.00
10:56:23:785 -> 2052.00
10:56:23:796 -> 2060.00
10:56:23:807 -> 2032.00
10:56:23:818 -> 1966.00
10:56:23:828 -> 2027.00
10:56:23:839 -> 2101.00
10:56:23:849 -> 2157.00
10:56:23:859 -> 1932.00
10:56:23:872 -> 1991.00
10:56:23:880 -> 2348.00
10:56:23:890 -> 1873.00
10:56:23:901 -> 2166.00
10:56:23:911 -> 1984.00
10:56:23:922 -> 2211.00
10:56:23:932 -> 1760.00
10:56:23:942 -> 2164.00
10:56:23:953 -> 1963.00
10:56:23:963 -> 2256.00
10:56:23:974 -> 2035.00
10:56:23:999 -> 2152.00
10:56:24:012 -> 1934.00
10:56:24:012 -> 2218.00
10:56:24:015 -> 1984.00
10:56:24:025 -> 2206.00
10:56:24:035 -> 1913.00
10:56:24:047 -> 2208.00
10:56:24:056 -> 1974.00
10:56:24:066 -> 2086.00
10:56:24:077 -> 1837.00
10:56:24:102 -> 1970.00
10:56:24:103 -> 2042.00
10:56:24:109 -> 2011.00
10:56:24:119 -> 2055.00
10:56:24:129 -> 1992.00
10:56:24:139 -> 2081.00
10:56:24:150 -> 2057.00
10:56:24:160 -> 2123.00
10:56:24:170 -> 1910.00
10:56:24:180 -> 2162.00
10:56:24:191 -> 1922.00
10:56:24:201 -> 2223.00
10:56:24:212 -> 1830.00
10:56:24:222 -> 2191.00
10:56:24:232 -> 1963.00
10:56:24:242 -> 2189.00
10:56:24:253 -> 1775.00
10:56:24:263 -> 2159.00
10:56:24:274 -> 2040.00
10:56:24:283 -> 2246.00
10:56:24:294 -> 1870.00
10:56:24:304 -> 2160.00
10:56:24:315 -> 1971.00
10:56:24:325 -> 2069.00
10:56:24:335 -> 1897.00
10:56:24:346 -> 2158.00
10:56:24:356 -> 2005.00
10:56:24:366 -> 2033.00
10:56:24:377 -> 2017.00
10:56:24:387 -> 1993.00
10:56:24:398 -> 1912.00
10:56:24:408 -> 1874.00
10:56:24:418 -> 2048.00
10:56:24:429 -> 2000.00
10:56:24:439 -> 2153.00
10:56:24:450 -> 2052.00
10:56:24:460 -> 2133.00
10:56:24:471 -> 1937.00
10:56:24:481 -> 2101.00
10:56:24:491 -> 1857.00
10:56:24:502 -> 2130.00
10:56:24:512 -> 1993.00
10:56:24:522 -> 1960.00
10:56:24:533 -> 2033.00
10:56:24:544 -> 2208.00
10:56:24:553 -> 1917.00
10:56:24:564 -> 2142.00
10:56:24:574 -> 1936.00
10:56:24:584 -> 2094.00
10:56:24:594 -> 1958.00
10:56:24:616 -> 2049.00
10:56:24:617 -> 1979.00
10:56:24:625 -> 2046.00
10:56:24:636 -> 1988.00
10:56:24:648 -> 1999.00
10:56:24:658 -> 2072.00
10:56:24:668 -> 1971.00
10:56:24:679 -> 2069.00
10:56:24:689 -> 1953.00
10:56:24:700 -> 2050.00
10:56:24:710 -> 1973.00
10:56:24:720 -> 2156.00
10:56:24:731 -> 1970.00
10:56:24:741 -> 2116.00
10:56:24:751 -> 1946.00
10:56:24:761 -> 2096.00
10:56:24:772 -> 1941.00
10:56:24:782 -> 2086.00
10:56:24:793 -> 1954.00
10:56:24:803 -> 2091.00
10:56:24:813 -> 1968.00
10:56:24:823 -> 2086.00
10:56:24:834 -> 1957.00
10:56:24:846 -> 2100.00
10:56:24:876 -> 1996.00
10:56:24:877 -> 2058.00
10:56:24:877 -> 1986.00
10:56:24:887 -> 2024.00
10:56:24:897 -> 1925.00
10:56:24:907 -> 1994.00
10:56:24:921 -> 2025.00
10:56:24:928 -> 1984.00
10:56:24:939 -> 2091.00
10:56:24:949 -> 1951.00
10:56:24:959 -> 2149.00
10:56:24:969 -> 1958.00
10:56:24:980 -> 2133.00
10:56:24:990 -> 1951.00
10:56:25:001 -> 2117.00
10:56:25:011 -> 1901.00
10:56:25:022 -> 2080.00
10:56:25:033 -> 1915.00
10:56:25:043 -> 2126.00
10:56:25:055 -> 1918.00
10:56:25:063 -> 2118.00
10:56:25:073 -> 1975.00
10:56:25:084 -> 2103.00
10:56:25:094 -> 1954.00
10:56:25:104 -> 2100.00
10:56:25:130 -> 1905.00
10:56:25:131 -> 2030.00
10:56:25:138 -> 1942.00
10:56:25:149 -> 1993.00
10:56:25:159 -> 2072.00
10:56:25:169 -> 1977.00
10:56:25:181 -> 2087.00
10:56:25:191 -> 1953.00
10:56:25:201 -> 2096.00
10:56:25:212 -> 1953.00
10:56:25:223 -> 2124.00
10:56:25:237 -> 1994.00
10:56:25:243 -> 2112.00
10:56:25:254 -> 1935.00
10:56:25:264 -> 2120.00
10:56:25:274 -> 1968.00
10:56:25:285 -> 2104.00
10:56:25:295 -> 1955.00
10:56:25:305 -> 2082.00
10:56:25:316 -> 2012.00
10:56:25:327 -> 2042.00
10:56:25:337 -> 2015.00
10:56:25:348 -> 2003.00
10:56:25:359 -> 2008.00
10:56:25:369 -> 1975.00
10:56:25:379 -> 2071.00
10:56:25:389 -> 1988.00
10:56:25:400 -> 2082.00
10:56:25:410 -> 1970.00
10:56:25:420 -> 2109.00
10:56:25:431 -> 1925.00
10:56:25:441 -> 2095.00
10:56:25:451 -> 1933.00
10:56:25:462 -> 2130.00
10:56:25:472 -> 1958.00
10:56:25:482 -> 2110.00
10:56:25:493 -> 1950.00
10:56:25:503 -> 2121.00
10:56:25:513 -> 1929.00
10:56:25:524 -> 2128.00
10:56:25:537 -> 1932.00
10:56:25:544 -> 2112.00
10:56:25:554 -> 1940.00
10:56:25:565 -> 2099.00
10:56:25:575 -> 1977.00
10:56:25:586 -> 2028.00
10:56:25:596 -> 1929.00
10:56:25:606 -> 2062.00
10:56:25:616 -> 1954.00
10:56:25:627 -> 2040.00
10:56:25:647 -> 2009.00
10:56:25:648 -> 2030.00
10:56:25:658 -> 2034.00
10:56:25:668 -> 2006.00
10:56:25:679 -> 2045.00
10:56:25:689 -> 1986.00
10:56:25:700 -> 2080.00
10:56:25:710 -> 1965.00
10:56:25:720 -> 2097.00
10:56:25:730 -> 1958.00
10:56:25:741 -> 2078.00
10:56:25:751 -> 1925.00
10:56:25:761 -> 2110.00
10:56:25:772 -> 1921.00
10:56:25:782 -> 2123.00
10:56:25:792 -> 1928.00
10:56:25:803 -> 2129.00
10:56:25:813 -> 1925.00
10:56:25:824 -> 2109.00
10:56:25:837 -> 1933.00
10:56:25:844 -> 2094.00
10:56:25:855 -> 1963.00
10:56:25:866 -> 2091.00
10:56:25:876 -> 1906.00
10:56:25:886 -> 2047.00
10:56:25:897 -> 1986.00
10:56:25:907 -> 2012.00
10:56:25:944 -> 2037.00
10:56:25:945 -> 2032.00
10:56:25:945 -> 2028.00
10:56:25:948 -> 1990.00
10:56:25:959 -> 2055.00
10:56:25:969 -> 1964.00
10:56:25:979 -> 2081.00
10:56:25:990 -> 1965.00
10:56:26:000 -> 2049.00
10:56:26:011 -> 1975.00
10:56:26:021 -> 2114.00
10:56:26:031 -> 1960.00
10:56:26:041 -> 2086.00
10:56:26:052 -> 1947.00
10:56:26:062 -> 2110.00
10:56:26:073 -> 1941.00
10:56:26:083 -> 2124.00
10:56:26:093 -> 1928.00
10:56:26:104 -> 2109.00
10:56:26:114 -> 1957.00
10:56:26:124 -> 2095.00
10:56:26:134 -> 1953.00
10:56:26:145 -> 2083.00
10:56:26:164 -> 1953.00
10:56:26:165 -> 2068.00
10:56:26:176 -> 1891.00
10:56:26:186 -> 2056.00
10:56:26:197 -> 1960.00
10:56:26:207 -> 2036.00
10:56:26:221 -> 2015.00
10:56:26:227 -> 1993.00
10:56:26:238 -> 2057.00
10:56:26:248 -> 2005.00
10:56:26:258 -> 2052.00
10:56:26:269 -> 1964.00
10:56:26:279 -> 2087.00
10:56:26:289 -> 1967.00
10:56:26:300 -> 2096.00
10:56:26:310 -> 1952.00
10:56:26:320 -> 2082.00
10:56:26:331 -> 1933.00
10:56:26:341 -> 2102.00
10:56:26:352 -> 1951.00
10:56:26:362 -> 2117.00
10:56:26:372 -> 1939.00
10:56:26:386 -> 2113.00
10:56:26:394 -> 1957.00
10:56:26:404 -> 2084.00
10:56:26:414 -> 1974.00
10:56:26:425 -> 2055.00
10:56:26:436 -> 1965.00
10:56:26:445 -> 2042.00
10:56:26:456 -> 1926.00
10:56:26:466 -> 2041.00
10:56:26:476 -> 1989.00
10:56:26:487 -> 2015.00
10:56:26:497 -> 2032.00
10:56:26:509 -> 2001.00
10:56:26:519 -> 2094.00
10:56:26:530 -> 1947.00
10:56:26:541 -> 2108.00
10:56:26:551 -> 1934.00
10:56:26:562 -> 2100.00
10:56:26:572 -> 1937.00
10:56:26:582 -> 2120.00
10:56:26:593 -> 1929.00
10:56:26:603 -> 2120.00
10:56:26:614 -> 1956.00
10:56:26:624 -> 2102.00
10:56:26:634 -> 1983.00
10:56:26:645 -> 2059.00
10:56:26:655 -> 2074.00
10:56:26:681 -> 2042.00
10:56:26:681 -> 1906.00
10:56:26:686 -> 2054.00
10:56:26:696 -> 1983.00
10:56:26:707 -> 2022.00
10:56:26:717 -> 2042.00
10:56:26:727 -> 2014.00
10:56:26:737 -> 2049.00
10:56:26:748 -> 1971.00
10:56:26:759 -> 2089.00
10:56:26:773 -> 1983.00
10:56:26:795 -> 2076.00
10:56:26:795 -> 2002.00
10:56:26:800 -> 2111.00
10:56:26:810 -> 1917.00
10:56:26:820 -> 2114.00
10:56:26:831 -> 1962.00
10:56:26:841 -> 2095.00
10:56:26:851 -> 1921.00
10:56:26:862 -> 2127.00
10:56:26:872 -> 1932.00
10:56:26:887 -> 2113.00
10:56:26:893 -> 1926.00
10:56:26:904 -> 2108.00
10:56:26:914 -> 1933.00
10:56:26:924 -> 2100.00
10:56:26:934 -> 1969.00
10:56:26:945 -> 2084.00
10:56:26:955 -> 1925.00
10:56:26:966 -> 2069.00
10:56:26:976 -> 1943.00
10:56:26:986 -> 2037.00
10:56:26:996 -> 2006.00
10:56:27:007 -> 2019.00
10:56:27:017 -> 2048.00
10:56:27:028 -> 1980.00
10:56:27:038 -> 2078.00
