11:05:57:022 -> 1983.00
11:05:57:033 -> 2034.00
11:05:57:044 -> 2090.00
11:05:57:054 -> 1988.00
11:05:57:065 -> 2078.00
11:05:57:075 -> 2004.00
11:05:57:085 -> 2042.00
11:05:57:097 -> 1987.00
11:05:57:107 -> 2092.00
11:05:57:117 -> 2021.00
11:05:57:128 -> 2051.00
11:05:57:138 -> 1958.00
11:05:57:149 -> 2086.00
11:05:57:160 -> 1901.00
11:05:57:170 -> 2063.00
11:05:57:180 -> 1986.00
11:05:57:191 -> 2083.00
11:05:57:201 -> 2004.00
11:05:57:212 -> 2060.00
11:05:57:222 -> 2023.00
11:05:57:232 -> 2026.00
11:05:57:256 -> 2007.00
11:05:57:256 -> 2029.00
11:05:57:263 -> 2007.00
11:05:57:273 -> 2012.00
11:05:57:296 -> 2059.00
11:05:57:297 -> 1988.00
11:05:57:304 -> 2081.00
11:05:57:315 -> 1992.00
11:05:57:325 -> 2038.00
11:05:57:336 -> 1923.00
11:05:57:346 -> 2063.00
11:05:57:356 -> 2010.00
11:05:57:366 -> 2064.00
11:05:57:377 -> 1990.00
11:05:57:387 -> 2114.00
11:05:57:399 -> 1976.00
11:05:57:408 -> 2057.00
11:05:57:418 -> 2023.00
11:05:57:428 -> 2074.00
11:05:57:439 -> 2015.00
11:05:57:449 -> 2063.00
11:05:57:460 -> 1888.00
11:05:57:470 -> 2032.00
11:05:57:480 -> 1973.00
11:05:57:491 -> 2008.00
11:05:57:501 -> 1956.00
11:05:57:511 -> 2022.00
11:05:57:522 -> 2016.00
11:05:57:532 -> 2039.00
11:05:57:542 -> 2006.00
11:05:57:553 -> 2018.00
11:05:57:563 -> 2097.00
11:05:57:573 -> 1980.00
11:05:57:584 -> 2069.00
11:05:57:594 -> 1978.00
11:05:57:604 -> 2052.00
11:05:57:614 -> 1963.00
11:05:57:625 -> 2040.00
11:05:57:635 -> 1993.00
11:05:57:645 -> 2039.00
11:05:57:656 -> 1972.00
11:05:57:666 -> 2051.00
11:05:57:676 -> 2001.00
11:05:57:687 -> 2063.00
11:05:57:697 -> 2002.00
11:05:57:708 -> 2089.00
11:05:57:718 -> 1968.00
11:05:57:728 -> 2084.00
11:05:57:742 -> 1950.00
11:05:57:749 -> 2083.00
11:05:57:759 -> 1910.00
11:05:57:770 -> 2051.00
11:05:57:780 -> 2009.00
11:05:57:792 -> 2047.00
11:05:57:816 -> 2018.00
11:05:57:817 -> 2014.00
11:05:57:821 -> 2013.00
11:05:57:832 -> 1997.00
11:05:57:842 -> 2044.00
11:05:57:852 -> 2026.00
11:05:57:863 -> 2012.00
11:05:57:875 -> 2018.00
11:05:57:883 -> 2037.00
11:05:57:894 -> 1983.00
11:05:57:904 -> 2112.00
11:05:57:914 -> 2018.00
11:05:57:924 -> 2070.00
11:05:57:935 -> 1957.00
11:05:57:945 -> 2061.00
11:05:57:955 -> 1959.00
11:05:57:966 -> 2125.00
11:05:57:976 -> 1946.00
11:05:57:987 -> 2108.00
11:05:57:997 -> 1940.00
11:05:58:007 -> 2085.00
11:05:58:017 -> 1921.00
11:05:58:028 -> 2132.00
11:05:58:038 -> 1952.00
11:05:58:048 -> 2107.00
11:05:58:059 -> 1830.00
11:05:58:069 -> 2129.00
11:05:58:079 -> 1875.00
11:05:58:090 -> 2076.00
11:05:58:100 -> 1932.00
11:05:58:110 -> 2127.00
11:05:58:120 -> 1893.00
11:05:58:130 -> 2105.00
11:05:58:141 -> 1960.00
11:05:58:151 -> 2075.00
11:05:58:161 -> 1955.00
11:05:58:172 -> 2014.00
11:05:58:182 -> 1997.00
11:05:58:192 -> 2028.00
11:05:58:203 -> 2018.00
11:05:58:245 -> 2020.00
11:05:58:246 -> 2044.00
11:05:58:246 -> 2029.00
11:05:58:246 -> 2072.00
11:05:58:254 -> 1977.00
11:05:58:264 -> 2079.00
11:05:58:275 -> 1964.00
11:05:58:285 -> 2072.00
11:05:58:295 -> 1971.00
11:05:58:309 -> 2099.00
11:05:58:316 -> 1915.00
11:05:58:333 -> 2108.00
11:05:58:336 -> 1951.00
11:05:58:347 -> 2144.00
11:05:58:357 -> 1984.00
11:05:58:367 -> 2095.00
11:05:58:377 -> 1963.00
11:05:58:388 -> 2127.00
11:05:58:398 -> 1894.00
11:05:58:408 -> 2072.00
11:05:58:419 -> 1803.00
11:05:58:429 -> 2095.00
11:05:58:439 -> 1876.00
11:05:58:450 -> 2134.00
11:05:58:460 -> 1944.00
11:05:58:470 -> 2145.00
11:05:58:481 -> 1943.00
11:05:58:491 -> 2120.00
11:05:58:501 -> 1938.00
11:05:58:512 -> 2068.00
11:05:58:522 -> 2016.00
11:05:58:532 -> 2029.00
11:05:58:543 -> 2007.00
11:05:58:553 -> 2012.00
11:05:58:565 -> 2057.00
11:05:58:575 -> 1924.00
11:05:58:588 -> 2072.00
11:05:58:595 -> 1947.00
11:05:58:606 -> 2102.00
11:05:58:616 -> 1941.00
11:05:58:626 -> 2169.00
11:05:58:637 -> 1965.00
11:05:58:647 -> 2145.00
11:05:58:657 -> 1915.00
11:05:58:668 -> 2163.00
11:05:58:678 -> 2011.00
11:05:58:688 -> 2183.00
11:05:58:703 -> 1784.00
11:05:58:709 -> 2148.00
11:05:58:719 -> 1861.00
11:05:58:729 -> 2109.00
11:05:58:740 -> 1912.00
11:05:58:750 -> 2116.00
11:05:58:760 -> 1927.00
11:05:58:771 -> 2077.00
11:05:58:781 -> 1930.00
11:05:58:791 -> 2065.00
11:05:58:801 -> 1960.00
11:05:58:812 -> 2068.00
11:05:58:822 -> 1980.00
11:05:58:850 -> 2006.00
11:05:58:852 -> 2012.00
11:05:58:853 -> 2045.00
11:05:58:863 -> 2084.00
11:05:58:873 -> 2039.00
11:05:58:884 -> 2102.00
11:05:58:894 -> 1960.00
11:05:58:904 -> 2075.00
11:05:58:915 -> 1996.00
11:05:58:926 -> 2110.00
11:05:58:935 -> 1873.00
11:05:58:946 -> 2107.00
11:05:58:956 -> 1900.00
11:05:58:967 -> 2210.00
11:05:58:978 -> 1963.00
11:05:58:987 -> 2115.00
11:05:58:998 -> 1801.00
11:05:59:008 -> 2263.00
11:05:59:018 -> 1820.00
11:05:59:029 -> 2122.00
11:05:59:039 -> 1980.00
11:05:59:050 -> 1977.00
11:05:59:060 -> 1843.00
11:05:59:071 -> 2009.00
11:05:59:081 -> 2139.00
11:05:59:096 -> 2025.00
11:05:59:102 -> 2066.00
11:05:59:112 -> 2013.00
11:05:59:122 -> 1817.00
11:05:59:133 -> 2117.00
11:05:59:143 -> 2075.00
11:05:59:153 -> 2085.00
11:05:59:164 -> 2119.00
11:05:59:174 -> 1860.00
11:05:59:184 -> 2089.00
11:05:59:195 -> 1774.00
11:05:59:205 -> 2051.00
11:05:59:215 -> 1910.00
11:05:59:226 -> 2049.00
11:05:59:236 -> 1859.00
11:05:59:246 -> 2137.00
11:05:59:257 -> 1950.00
11:05:59:267 -> 2152.00
11:05:59:277 -> 2025.00
11:05:59:298 -> 2046.00
11:05:59:288 -> 2148.00
11:05:59:308 -> 1981.00
11:05:59:339 -> 1860.00
11:05:59:340 -> 1974.00
11:05:59:340 -> 1829.00
11:05:59:371 -> 2147.00
11:05:59:372 -> 1969.00
11:05:59:372 -> 2026.00
11:05:59:385 -> 2041.00
11:05:59:395 -> 1950.00
11:05:59:405 -> 2154.00
11:05:59:416 -> 1986.00
11:05:59:426 -> 1997.00
11:05:59:436 -> 1939.00
11:05:59:447 -> 2131.00
11:05:59:457 -> 1985.00
11:05:59:467 -> 2128.00
11:05:59:477 -> 2008.00
11:05:59:488 -> 2102.00
11:05:59:498 -> 1805.00
11:05:59:508 -> 1889.00
11:05:59:519 -> 1867.00
11:05:59:529 -> 2102.00
11:05:59:539 -> 1793.00
11:05:59:550 -> 2080.00
11:05:59:560 -> 2013.00
11:05:59:570 -> 2052.00
11:05:59:580 -> 1989.00
11:05:59:590 -> 2119.00
11:05:59:601 -> 2017.00
11:05:59:611 -> 2005.00
11:05:59:622 -> 2033.00
11:05:59:632 -> 2054.00
11:05:59:646 -> 2063.00
11:05:59:652 -> 2008.00
11:05:59:663 -> 1967.00
11:05:59:673 -> 1943.00
11:05:59:684 -> 2102.00
11:05:59:694 -> 1988.00
11:05:59:705 -> 2063.00
11:05:59:716 -> 2009.00
11:05:59:726 -> 2117.00
11:05:59:737 -> 1903.00
11:05:59:746 -> 2059.00
11:05:59:762 -> 1974.00
11:05:59:767 -> 2182.00
11:05:59:777 -> 1831.00
11:05:59:788 -> 2156.00
11:05:59:798 -> 1854.00
11:05:59:809 -> 2115.00
11:05:59:819 -> 1826.00
11:05:59:829 -> 2154.00
11:05:59:839 -> 1921.00
11:05:59:850 -> 2132.00
11:05:59:863 -> 1983.00
11:05:59:886 -> 2097.00
11:05:59:887 -> 1975.00
11:05:59:892 -> 1980.00
11:05:59:902 -> 2046.00
11:05:59:912 -> 1973.00
11:05:59:923 -> 2034.00
11:05:59:933 -> 1982.00
11:05:59:944 -> 2046.00
11:05:59:954 -> 1978.00
11:05:59:964 -> 2061.00
11:05:59:974 -> 1941.00
11:05:59:985 -> 2091.00
11:05:59:995 -> 1942.00
11:06:00:006 -> 2110.00
11:06:00:016 -> 1932.00
11:06:00:026 -> 2112.00
11:06:00:046 -> 2129.00
11:06:00:036 -> 1896.00
11:06:00:057 -> 1953.00
11:06:00:067 -> 2127.00
11:06:00:077 -> 1916.00
11:06:00:087 -> 2127.00
11:06:00:098 -> 1869.00
11:06:00:108 -> 2123.00
11:06:00:118 -> 1783.00
11:06:00:129 -> 2144.00
11:06:00:139 -> 1872.00
11:06:00:149 -> 2140.00
11:06:00:160 -> 1949.00
11:06:00:170 -> 2110.00
11:06:00:180 -> 1971.00
11:06:00:191 -> 2144.00
11:06:00:201 -> 1963.00
11:06:00:211 -> 2090.00
11:06:00:222 -> 1973.00
11:06:00:232 -> 2057.00
11:06:00:247 -> 2044.00
11:06:00:253 -> 2024.00
11:06:00:263 -> 2058.00
11:06:00:273 -> 2006.00
11:06:00:284 -> 2095.00
11:06:00:321 -> 1985.00
11:06:00:322 -> 2070.00
11:06:00:322 -> 1937.00
11:06:00:325 -> 2098.00
11:06:00:335 -> 1923.00
11:06:00:345 -> 2103.00
11:06:00:360 -> 1916.00
11:06:00:366 -> 2116.00
11:06:00:376 -> 1924.00
11:06:00:402 -> 2144.00
11:06:00:403 -> 1949.00
11:06:00:407 -> 2135.00
11:06:00:418 -> 1947.00
11:06:00:428 -> 2154.00
11:06:00:438 -> 1986.00
11:06:00:448 -> 2149.00
11:06:00:459 -> 1826.00
11:06:00:469 -> 2143.00
11:06:00:479 -> 1875.00
11:06:00:490 -> 2108.00
11:06:00:500 -> 1943.00
11:06:00:511 -> 2089.00
11:06:00:521 -> 1959.00
11:06:00:531 -> 2114.00
11:06:00:542 -> 1943.00
11:06:00:552 -> 2028.00
11:06:00:562 -> 2020.00
11:06:00:573 -> 2030.00
11:06:00:583 -> 2013.00
11:06:00:593 -> 2022.00
11:06:00:603 -> 2082.00
11:06:00:614 -> 1939.00
11:06:00:624 -> 2085.00
11:06:00:635 -> 1958.00
11:06:00:645 -> 2133.00
11:06:00:656 -> 1935.00
11:06:00:665 -> 2124.00
11:06:00:676 -> 1915.00
11:06:00:686 -> 2127.00
11:06:00:696 -> 1942.00
11:06:00:707 -> 2157.00
11:06:00:719 -> 1937.00
11:06:00:727 -> 2155.00
11:06:00:738 -> 1895.00
11:06:00:748 -> 2122.00
11:06:00:758 -> 1859.00
11:06:00:769 -> 2106.00
11:06:00:779 -> 1823.00
11:06:00:790 -> 2160.00
11:06:00:800 -> 1958.00
11:06:00:810 -> 2117.00
11:06:00:820 -> 1936.00
11:06:00:830 -> 2128.00
11:06:00:841 -> 1928.00
11:06:00:851 -> 2077.00
11:06:00:862 -> 2020.00
11:06:00:872 -> 2073.00
11:06:00:882 -> 2006.00
11:06:00:893 -> 2029.00
11:06:00:918 -> 2059.00
11:06:00:918 -> 2026.00
11:06:00:924 -> 2044.00
11:06:00:934 -> 1955.00
11:06:00:944 -> 2052.00
11:06:00:955 -> 1959.00
11:06:00:965 -> 2096.00
11:06:00:975 -> 1908.00
11:06:00:986 -> 2113.00
11:06:00:996 -> 1926.00
11:06:01:006 -> 2156.00
11:06:01:017 -> 1942.00
11:06:01:027 -> 2181.00
11:06:01:037 -> 1898.00
11:06:01:048 -> 2151.00
11:06:01:058 -> 1899.00
11:06:01:068 -> 2118.00
11:06:01:079 -> 1800.00
11:06:01:089 -> 2173.00
11:06:01:099 -> 1863.00
11:06:01:110 -> 2130.00
11:06:01:120 -> 1957.00
11:06:01:130 -> 2123.00
11:06:01:141 -> 1964.00
11:06:01:151 -> 2091.00
11:06:01:161 -> 1947.00
11:06:01:172 -> 2064.00
11:06:01:182 -> 1968.00
11:06:01:192 -> 2012.00
11:06:01:202 -> 2024.00
11:06:01:213 -> 2011.00
11:06:01:223 -> 2056.00
11:06:01:234 -> 2004.00
11:06:01:244 -> 2069.00
11:06:01:254 -> 1954.00
11:06:01:264 -> 2102.00
11:06:01:275 -> 1913.00
11:06:01:285 -> 2122.00
11:06:01:295 -> 1968.00
11:06:01:306 -> 2108.00
11:06:01:316 -> 1941.00
11:06:01:326 -> 2134.00
11:06:01:336 -> 1934.00
11:06:01:365 -> 2203.00
11:06:01:366 -> 1897.00
11:06:01:367 -> 2152.00
11:06:01:377 -> 1902.00
11:06:01:388 -> 2118.00
11:06:01:403 -> 1868.00
11:06:01:408 -> 2134.00
11:06:01:434 -> 1835.00
11:06:01:436 -> 2119.00
11:06:01:439 -> 1899.00
11:06:01:449 -> 2131.00
11:06:01:460 -> 1920.00
11:06:01:470 -> 2129.00
11:06:01:480 -> 1933.00
11:06:01:491 -> 2105.00
11:06:01:501 -> 1883.00
11:06:01:511 -> 2114.00
11:06:01:521 -> 1994.00
11:06:01:533 -> 2059.00
11:06:01:542 -> 2025.00
11:06:01:552 -> 2027.00
11:06:01:563 -> 2008.00
11:06:01:573 -> 2023.00
11:06:01:583 -> 2074.00
11:06:01:593 -> 2006.00
11:06:01:604 -> 2088.00
11:06:01:614 -> 1939.00
11:06:01:624 -> 2115.00
11:06:01:635 -> 1930.00
11:06:01:645 -> 2118.00
11:06:01:655 -> 1921.00
11:06:01:665 -> 2119.00
11:06:01:677 -> 1915.00
11:06:01:686 -> 2123.00
11:06:01:696 -> 1938.00
11:06:01:707 -> 2191.00
11:06:01:717 -> 1937.00
11:06:01:727 -> 2162.00
11:06:01:738 -> 2038.00
11:06:01:748 -> 2151.00
11:06:01:758 -> 1799.00
11:06:01:768 -> 2134.00
11:06:01:783 -> 1869.00
11:06:01:789 -> 2133.00
11:06:01:799 -> 1902.00
11:06:01:810 -> 2141.00
11:06:01:820 -> 1957.00
11:06:01:830 -> 2092.00
11:06:01:841 -> 1941.00
11:06:01:851 -> 2095.00
11:06:01:861 -> 1960.00
11:06:01:872 -> 2056.00
11:06:01:882 -> 2011.00
11:06:01:892 -> 2043.00
11:06:01:903 -> 2019.00
11:06:01:913 -> 2013.00
11:06:01:923 -> 2085.00
11:06:01:934 -> 1978.00
11:06:01:954 -> 2072.00
11:06:01:954 -> 1933.00
11:06:01:964 -> 2102.00
11:06:01:975 -> 1929.00
11:06:01:985 -> 2137.00
11:06:01:995 -> 1918.00
11:06:02:005 -> 2135.00
11:06:02:016 -> 1933.00
11:06:02:026 -> 2158.00
11:06:02:036 -> 1900.00
11:06:02:047 -> 2166.00
11:06:02:057 -> 1908.00
11:06:02:067 -> 2121.00
11:06:02:078 -> 1892.00
11:06:02:088 -> 2146.00
11:06:02:098 -> 1829.00
11:06:02:109 -> 2169.00
11:06:02:119 -> 1906.00
11:06:02:129 -> 2125.00
11:06:02:140 -> 1943.00
11:06:02:150 -> 2131.00
11:06:02:160 -> 1956.00
11:06:02:171 -> 2081.00
11:06:02:181 -> 1943.00
11:06:02:196 -> 2054.00
11:06:02:202 -> 2033.00
11:06:02:212 -> 1997.00
11:06:02:222 -> 2036.00
11:06:02:233 -> 2018.00
11:06:02:243 -> 2068.00
11:06:02:253 -> 1965.00
11:06:02:264 -> 2118.00
11:06:02:274 -> 1952.00
11:06:02:284 -> 2104.00
11:06:02:295 -> 1928.00
11:06:02:305 -> 2125.00
11:06:02:315 -> 1918.00
11:06:02:326 -> 2164.00
11:06:02:336 -> 1947.00
11:06:02:346 -> 2149.00
11:06:02:357 -> 1887.00
11:06:02:367 -> 2183.00
11:06:02:377 -> 1927.00
11:06:02:387 -> 2109.00
11:06:02:398 -> 1937.00
11:06:02:408 -> 2146.00
11:06:02:419 -> 1813.00
11:06:02:429 -> 2137.00
11:06:02:439 -> 1874.00
11:06:02:449 -> 2167.00
11:06:02:478 -> 1955.00
11:06:02:479 -> 2122.00
11:06:02:480 -> 1961.00
11:06:02:490 -> 2076.00
11:06:02:501 -> 1959.00
11:06:02:511 -> 2064.00
11:06:02:545 -> 1991.00
11:06:02:545 -> 2041.00
11:06:02:545 -> 2015.00
11:06:02:552 -> 2013.00
11:06:02:562 -> 2011.00
11:06:02:573 -> 1996.00
11:06:02:583 -> 2074.00
11:06:02:593 -> 1966.00
11:06:02:604 -> 2077.00
11:06:02:614 -> 1973.00
11:06:02:624 -> 2108.00
11:06:02:634 -> 1923.00
11:06:02:645 -> 2120.00
11:06:02:655 -> 1914.00
11:06:02:665 -> 2146.00
11:06:02:675 -> 1895.00
11:06:02:686 -> 2168.00
11:06:02:696 -> 1909.00
11:06:02:707 -> 2203.00
11:06:02:717 -> 1888.00
11:06:02:728 -> 2169.00
11:06:02:737 -> 1986.00
11:06:02:748 -> 2131.00
11:06:02:758 -> 1857.00
11:06:02:769 -> 2118.00
11:06:02:779 -> 1839.00
11:06:02:789 -> 2124.00
11:06:02:800 -> 1975.00
11:06:02:810 -> 2075.00
11:06:02:820 -> 1923.00
11:06:02:831 -> 2101.00
11:06:02:841 -> 1935.00
11:06:02:851 -> 2044.00
11:06:02:862 -> 1946.00
11:06:02:872 -> 1976.00
11:06:02:882 -> 1975.00
11:06:02:893 -> 2056.00
11:06:02:903 -> 1961.00
11:06:02:913 -> 2049.00
11:06:02:924 -> 2029.00
11:06:02:934 -> 1984.00
11:06:02:944 -> 2083.00
11:06:02:954 -> 1917.00
11:06:02:965 -> 2110.00
11:06:02:996 -> 1824.00
11:06:02:998 -> 2151.00
11:06:02:998 -> 1927.00
11:06:03:006 -> 2154.00
11:06:03:017 -> 1940.00
11:06:03:027 -> 2148.00
11:06:03:038 -> 1834.00
11:06:03:048 -> 2136.00
11:06:03:058 -> 1686.00
11:06:03:068 -> 2104.00
11:06:03:079 -> 1921.00
11:06:03:089 -> 2087.00
11:06:03:099 -> 1896.00
11:06:03:116 -> 2117.00
11:06:03:120 -> 1953.00
11:06:03:130 -> 2093.00
11:06:03:141 -> 1906.00
11:06:03:151 -> 2062.00
11:06:03:161 -> 1997.00
11:06:03:171 -> 2061.00
11:06:03:182 -> 2018.00
11:06:03:192 -> 2003.00
11:06:03:202 -> 2080.00
11:06:03:213 -> 1934.00
11:06:03:226 -> 1961.00
11:06:03:233 -> 2012.00
11:06:03:244 -> 2140.00
11:06:03:254 -> 1948.00
11:06:03:264 -> 2072.00
11:06:03:275 -> 2028.00
11:06:03:285 -> 2055.00
11:06:03:295 -> 1920.00
11:06:03:305 -> 2144.00
11:06:03:316 -> 1998.00
11:06:03:326 -> 2177.00
11:06:03:337 -> 2002.00
11:06:03:347 -> 2135.00
11:06:03:357 -> 1906.00
11:06:03:367 -> 2375.00
11:06:03:377 -> 1851.00
11:06:03:388 -> 2147.00
11:06:03:398 -> 1857.00
11:06:03:408 -> 2172.00
11:06:03:419 -> 2006.00
11:06:03:429 -> 2052.00
11:06:03:439 -> 1836.00
11:06:03:450 -> 1961.00
11:06:03:460 -> 2025.00
11:06:03:470 -> 2104.00
11:06:03:481 -> 1982.00
11:06:03:491 -> 2032.00
11:06:03:516 -> 1833.00
11:06:03:547 -> 2121.00
11:06:03:547 -> 2009.00
11:06:03:547 -> 2026.00
11:06:03:547 -> 2105.00
11:06:03:553 -> 2023.00
11:06:03:563 -> 2044.00
11:06:03:573 -> 2008.00
11:06:03:584 -> 1962.00
11:06:03:594 -> 1944.00
11:06:03:604 -> 2002.00
11:06:03:615 -> 2072.00
11:06:03:625 -> 2041.00
11:06:03:635 -> 2012.00
11:06:03:645 -> 2176.00
11:06:03:656 -> 1935.00
11:06:03:666 -> 2096.00
11:06:03:676 -> 1930.00
11:06:03:687 -> 2239.00
11:06:03:697 -> 1954.00
11:06:03:707 -> 2011.00
11:06:03:717 -> 1767.00
11:06:03:728 -> 2168.00
11:06:03:738 -> 1860.00
11:06:03:749 -> 2045.00
11:06:03:759 -> 1868.00
11:06:03:769 -> 2231.00
11:06:03:780 -> 1899.00
11:06:03:790 -> 1966.00
11:06:03:800 -> 2014.00
11:06:03:810 -> 1896.00
11:06:03:821 -> 1968.00
11:06:03:831 -> 2060.00
11:06:03:842 -> 1941.00
11:06:03:852 -> 1973.00
11:06:03:862 -> 2071.00
11:06:03:872 -> 1984.00
11:06:03:882 -> 2132.00
11:06:03:898 -> 1957.00
11:06:03:903 -> 2108.00
11:06:03:914 -> 2013.00
11:06:03:924 -> 1994.00
11:06:03:934 -> 1919.00
11:06:03:945 -> 2060.00
11:06:03:955 -> 1967.00
11:06:03:966 -> 2135.00
11:06:03:976 -> 1898.00
11:06:03:986 -> 2164.00
11:06:03:997 -> 2032.00
11:06:04:007 -> 2087.00
11:06:04:032 -> 1966.00
11:06:04:033 -> 2016.00
11:06:04:038 -> 1855.00
11:06:04:048 -> 2060.00
11:06:04:058 -> 1930.00
11:06:04:069 -> 2113.00
11:06:04:079 -> 1979.00
11:06:04:089 -> 2107.00
11:06:04:100 -> 1953.00
11:06:04:110 -> 2084.00
11:06:04:121 -> 1996.00
11:06:04:132 -> 2013.00
11:06:04:145 -> 2062.00
11:06:04:152 -> 1981.00
11:06:04:163 -> 2101.00
11:06:04:173 -> 1965.00
11:06:04:183 -> 2079.00
11:06:04:193 -> 1957.00
11:06:04:204 -> 2122.00
11:06:04:214 -> 1925.00
11:06:04:224 -> 2104.00
11:06:04:235 -> 1940.00
11:06:04:245 -> 2169.00
11:06:04:255 -> 1945.00
11:06:04:270 -> 2156.00
11:06:04:276 -> 1908.00
11:06:04:286 -> 2115.00
11:06:04:297 -> 1890.00
11:06:04:307 -> 2161.00
11:06:04:317 -> 1895.00
11:06:04:328 -> 2118.00
11:06:04:338 -> 1849.00
11:06:04:349 -> 2164.00
11:06:04:359 -> 1878.00
11:06:04:369 -> 2116.00
11:06:04:379 -> 1953.00
11:06:04:390 -> 2050.00
11:06:04:425 -> 1944.00
11:06:04:425 -> 2066.00
11:06:04:430 -> 1990.00
11:06:04:431 -> 1979.00
11:06:04:441 -> 2039.00
11:06:04:454 -> 1956.00
11:06:04:462 -> 2064.00
11:06:04:473 -> 1996.00
11:06:04:482 -> 2086.00
11:06:04:493 -> 1958.00
11:06:04:503 -> 2054.00
11:06:04:513 -> 1946.00
11:06:04:524 -> 2130.00
11:06:04:550 -> 1942.00
11:06:04:552 -> 2093.00
11:06:04:555 -> 1933.00
11:06:04:565 -> 2146.00
11:06:04:576 -> 1931.00
11:06:04:586 -> 2162.00
11:06:04:596 -> 1924.00
11:06:04:606 -> 2148.00
11:06:04:617 -> 1858.00
11:06:04:627 -> 2170.00
11:06:04:637 -> 1830.00
11:06:04:650 -> 2154.00
11:06:04:658 -> 1834.00
11:06:04:668 -> 2138.00
11:06:04:678 -> 1930.00
11:06:04:689 -> 2130.00
11:06:04:699 -> 1880.00
11:06:04:710 -> 2120.00
11:06:04:720 -> 1978.00
11:06:04:731 -> 2105.00
11:06:04:741 -> 1972.00
11:06:04:751 -> 2072.00
11:06:04:761 -> 2030.00
11:06:04:772 -> 1982.00
11:06:04:782 -> 2045.00
11:06:04:793 -> 1981.00
11:06:04:803 -> 2060.00
11:06:04:813 -> 1958.00
11:06:04:824 -> 2113.00
11:06:04:834 -> 1976.00
11:06:04:844 -> 2139.00
11:06:04:854 -> 1947.00
11:06:04:865 -> 2114.00
11:06:04:875 -> 1917.00
11:06:04:885 -> 2127.00
11:06:04:896 -> 1914.00
11:06:04:906 -> 2159.00
11:06:04:916 -> 1921.00
11:06:04:927 -> 2096.00
11:06:04:937 -> 1962.00
11:06:04:952 -> 2118.00
11:06:04:958 -> 1844.00
11:06:04:968 -> 2133.00
11:06:04:978 -> 1925.00
11:06:04:989 -> 2033.00
11:06:04:999 -> 1937.00
11:06:05:009 -> 2104.00
11:06:05:019 -> 1970.00
11:06:05:030 -> 2091.00
11:06:05:040 -> 1977.00
11:06:05:065 -> 2028.00
11:06:05:066 -> 1974.00
11:06:05:071 -> 2042.00
11:06:05:081 -> 2039.00
11:06:05:092 -> 2013.00
11:06:05:102 -> 2041.00
11:06:05:113 -> 2008.00
11:06:05:123 -> 2068.00
11:06:05:133 -> 1943.00
11:06:05:143 -> 2114.00
11:06:05:153 -> 1935.00
11:06:05:164 -> 2133.00
11:06:05:174 -> 1939.00
11:06:05:184 -> 2100.00
11:06:05:195 -> 1930.00
11:06:05:205 -> 2136.00
11:06:05:215 -> 1915.00
11:06:05:247 -> 2148.00
11:06:05:247 -> 1921.00
11:06:05:248 -> 2161.00
11:06:05:256 -> 1920.00
11:06:05:267 -> 2160.00
11:06:05:277 -> 1856.00
11:06:05:287 -> 2140.00
11:06:05:298 -> 1865.00
11:06:05:308 -> 2105.00
11:06:05:318 -> 1913.00
11:06:05:329 -> 2105.00
11:06:05:339 -> 1914.00
11:06:05:349 -> 2071.00
11:06:05:360 -> 1940.00
11:06:05:370 -> 2089.00
11:06:05:380 -> 1958.00
11:06:05:391 -> 2042.00
11:06:05:401 -> 2037.00
11:06:05:414 -> 2004.00
11:06:05:422 -> 2036.00
11:06:05:432 -> 2008.00
11:06:05:442 -> 2045.00
11:06:05:453 -> 1960.00
11:06:05:463 -> 2114.00
11:06:05:473 -> 1946.00
11:06:05:484 -> 2144.00
11:06:05:494 -> 1941.00
11:06:05:504 -> 2159.00
11:06:05:515 -> 1927.00
11:06:05:525 -> 2148.00
11:06:05:535 -> 1908.00
11:06:05:546 -> 2162.00
11:06:05:556 -> 1917.00
11:06:05:581 -> 2137.00
11:06:05:582 -> 1870.00
11:06:05:587 -> 2121.00
11:06:05:597 -> 1826.00
11:06:05:607 -> 2147.00
11:06:05:618 -> 1877.00
11:06:05:628 -> 2118.00
11:06:05:638 -> 1896.00
11:06:05:649 -> 2101.00
11:06:05:659 -> 1934.00
11:06:05:669 -> 2076.00
11:06:05:680 -> 1944.00
11:06:05:694 -> 2078.00
11:06:05:700 -> 1943.00
11:06:05:710 -> 2055.00
11:06:05:721 -> 2029.00
11:06:05:731 -> 2028.00
11:06:05:741 -> 2066.00
11:06:05:752 -> 2004.00
11:06:05:762 -> 2078.00
11:06:05:772 -> 1967.00
11:06:05:783 -> 2117.00
11:06:05:793 -> 1949.00
11:06:05:803 -> 2115.00
11:06:05:814 -> 1904.00
11:06:05:824 -> 2125.00
11:06:05:834 -> 1947.00
11:06:05:845 -> 2175.00
11:06:05:855 -> 1891.00
11:06:05:865 -> 2193.00
11:06:05:876 -> 1904.00
11:06:05:886 -> 2147.00
11:06:05:896 -> 1901.00
11:06:05:907 -> 2129.00
11:06:05:917 -> 1790.00
11:06:05:927 -> 2140.00
11:06:05:938 -> 1902.00
11:06:05:948 -> 2118.00
11:06:05:958 -> 1917.00
11:06:05:969 -> 2104.00
11:06:05:979 -> 1951.00
11:06:05:989 -> 2099.00
11:06:06:000 -> 1993.00
11:06:06:010 -> 2053.00
11:06:06:020 -> 1981.00
11:06:06:031 -> 2028.00
11:06:06:041 -> 2016.00
11:06:06:051 -> 2019.00
11:06:06:062 -> 2067.00
11:06:06:072 -> 1994.00
11:06:06:096 -> 2058.00
11:06:06:097 -> 1972.00
11:06:06:104 -> 2128.00
11:06:06:113 -> 1920.00
11:06:06:124 -> 2150.00
11:06:06:134 -> 1928.00
11:06:06:144 -> 2120.00
11:06:06:155 -> 1929.00
11:06:06:165 -> 2153.00
11:06:06:175 -> 1885.00
11:06:06:186 -> 2159.00
11:06:06:196 -> 1902.00
11:06:06:206 -> 2184.00
11:06:06:216 -> 1905.00
11:06:06:261 -> 2172.00
11:06:06:262 -> 1842.00
11:06:06:262 -> 2131.00
11:06:06:262 -> 1839.00
11:06:06:272 -> 2146.00
11:06:06:278 -> 1934.00
11:06:06:288 -> 2117.00
11:06:06:299 -> 1955.00
11:06:06:309 -> 2093.00
11:06:06:319 -> 1944.00
11:06:06:329 -> 2029.00
11:06:06:340 -> 1976.00
11:06:06:350 -> 2038.00
11:06:06:360 -> 1986.00
11:06:06:371 -> 2061.00
11:06:06:381 -> 2012.00
11:06:06:391 -> 2026.00
11:06:06:402 -> 2057.00
11:06:06:412 -> 1974.00
11:06:06:422 -> 2075.00
11:06:06:432 -> 1916.00
11:06:06:443 -> 2078.00
11:06:06:453 -> 1946.00
11:06:06:463 -> 2123.00
11:06:06:474 -> 1943.00
11:06:06:484 -> 2164.00
11:06:06:494 -> 1894.00
11:06:06:505 -> 2155.00
11:06:06:518 -> 1904.00
11:06:06:525 -> 2217.00
11:06:06:535 -> 1902.00
11:06:06:546 -> 2170.00
11:06:06:556 -> 1874.00
11:06:06:566 -> 2145.00
11:06:06:577 -> 1886.00
11:06:06:587 -> 2163.00
11:06:06:617 -> 1875.00
11:06:06:618 -> 2146.00
11:06:06:618 -> 1921.00
11:06:06:628 -> 2115.00
11:06:06:639 -> 1923.00
11:06:06:649 -> 2093.00
11:06:06:659 -> 1875.00
11:06:06:669 -> 2065.00
11:06:06:680 -> 1967.00
11:06:06:690 -> 2068.00
11:06:06:700 -> 2019.00
11:06:06:711 -> 2055.00
11:06:06:721 -> 2027.00
11:06:06:731 -> 2026.00
11:06:06:742 -> 2064.00
11:06:06:755 -> 1971.00
11:06:06:762 -> 2103.00
11:06:06:772 -> 1956.00
11:06:06:783 -> 2090.00
11:06:06:793 -> 1901.00
11:06:06:803 -> 2122.00
11:06:06:814 -> 1942.00
11:06:06:824 -> 2165.00
11:06:06:834 -> 1909.00
11:06:06:844 -> 2146.00
11:06:06:855 -> 1908.00
11:06:06:865 -> 2183.00
11:06:06:876 -> 1906.00
11:06:06:886 -> 2171.00
11:06:06:897 -> 1933.00
11:06:06:907 -> 2158.00
11:06:06:917 -> 1842.00
11:06:06:928 -> 2141.00
11:06:06:938 -> 1941.00
11:06:06:948 -> 2154.00
11:06:06:959 -> 1931.00
11:06:06:969 -> 2131.00
11:06:06:979 -> 1901.00
11:06:06:990 -> 2060.00
11:06:07:002 -> 2015.00
11:06:07:010 -> 2021.00
11:06:07:021 -> 2038.00
11:06:07:031 -> 2009.00
11:06:07:041 -> 2056.00
11:06:07:052 -> 1997.00
11:06:07:062 -> 2065.00
11:06:07:072 -> 1912.00
11:06:07:083 -> 2105.00
11:06:07:096 -> 1932.00
11:06:07:147 -> 2101.00
11:06:07:149 -> 1958.00
11:06:07:149 -> 2142.00
11:06:07:149 -> 1935.00
11:06:07:149 -> 2150.00
11:06:07:155 -> 1930.00
11:06:07:165 -> 2163.00
11:06:07:175 -> 1865.00
11:06:07:185 -> 2194.00
11:06:07:196 -> 1907.00
11:06:07:206 -> 2107.00
11:06:07:216 -> 1983.00
11:06:07:228 -> 2100.00
11:06:07:238 -> 1842.00
11:06:07:247 -> 2130.00
11:06:07:258 -> 1920.00
11:06:07:268 -> 2100.00
11:06:07:279 -> 1905.00
11:06:07:289 -> 2074.00
11:06:07:299 -> 1962.00
11:06:07:310 -> 2100.00
11:06:07:320 -> 2009.00
11:06:07:330 -> 2031.00
11:06:07:344 -> 2079.00
11:06:07:351 -> 1996.00
11:06:07:361 -> 2068.00
11:06:07:372 -> 1982.00
11:06:07:382 -> 2121.00
11:06:07:392 -> 1916.00
11:06:07:403 -> 2092.00
11:06:07:413 -> 1924.00
11:06:07:423 -> 2113.00
11:06:07:434 -> 1957.00
11:06:07:444 -> 2159.00
11:06:07:455 -> 1861.00
11:06:07:465 -> 2186.00
11:06:07:475 -> 1846.00
11:06:07:486 -> 2142.00
11:06:07:496 -> 1888.00
11:06:07:506 -> 2161.00
11:06:07:516 -> 1933.00
11:06:07:527 -> 2126.00
11:06:07:537 -> 1860.00
11:06:07:547 -> 2169.00
11:06:07:558 -> 1916.00
11:06:07:568 -> 2113.00
11:06:07:578 -> 1947.00
11:06:07:589 -> 2047.00
11:06:07:599 -> 1977.00
11:06:07:609 -> 2092.00
11:06:07:620 -> 1988.00
11:06:07:630 -> 2050.00
11:06:07:640 -> 2048.00
11:06:07:667 -> 2009.00
11:06:07:668 -> 2030.00
11:06:07:671 -> 2016.00
11:06:07:681 -> 2017.00
11:06:07:696 -> 1963.00
11:06:07:702 -> 2097.00
11:06:07:712 -> 1892.00
11:06:07:723 -> 2128.00
11:06:07:733 -> 1902.00
11:06:07:743 -> 2135.00
11:06:07:754 -> 1955.00
11:06:07:764 -> 2153.00
11:06:07:774 -> 1902.00
11:06:07:785 -> 2101.00
11:06:07:795 -> 1898.00
11:06:07:805 -> 2177.00
11:06:07:816 -> 1924.00
11:06:07:826 -> 2128.00
11:06:07:836 -> 1948.00
11:06:07:847 -> 2150.00
11:06:07:857 -> 1853.00
11:06:07:867 -> 2178.00
11:06:07:878 -> 1914.00
11:06:07:888 -> 2165.00
11:06:07:898 -> 1931.00
11:06:07:909 -> 2055.00
11:06:07:919 -> 1965.00
11:06:07:930 -> 2090.00
11:06:07:940 -> 2022.00
11:06:07:950 -> 2103.00
11:06:07:960 -> 2022.00
11:06:07:971 -> 2043.00
11:06:07:981 -> 2037.00
11:06:07:995 -> 1940.00
11:06:08:002 -> 2058.00
11:06:08:012 -> 1970.00
11:06:08:022 -> 2061.00
11:06:08:033 -> 1956.00
11:06:08:043 -> 2133.00
11:06:08:053 -> 1862.00
11:06:08:063 -> 2085.00
11:06:08:074 -> 1895.00
11:06:08:084 -> 2203.00
11:06:08:094 -> 1917.00
11:06:08:128 -> 2180.00
11:06:08:128 -> 1880.00
11:06:08:128 -> 2175.00
11:06:08:136 -> 1943.00
11:06:08:146 -> 2078.00
11:06:08:156 -> 1890.00
11:06:08:167 -> 2138.00
11:06:08:182 -> 1846.00
11:06:08:187 -> 2178.00
11:06:08:198 -> 1954.00
11:06:08:208 -> 2216.00
11:06:08:218 -> 2110.00
11:06:08:228 -> 2130.00
11:06:08:238 -> 2005.00
11:06:08:249 -> 2042.00
11:06:08:259 -> 1985.00
11:06:08:270 -> 2065.00
11:06:08:284 -> 2110.00
11:06:08:290 -> 1968.00
11:06:08:300 -> 2021.00
11:06:08:311 -> 2044.00
11:06:08:321 -> 2113.00
11:06:08:331 -> 2009.00
11:06:08:342 -> 2157.00
11:06:08:352 -> 1856.00
11:06:08:362 -> 2158.00
11:06:08:378 -> 1878.00
11:06:08:383 -> 2164.00
11:06:08:397 -> 1931.00
11:06:08:408 -> 2199.00
11:06:08:418 -> 2003.00
11:06:08:428 -> 2111.00
11:06:08:439 -> 2069.00
11:06:08:449 -> 2001.00
11:06:08:459 -> 2057.00
11:06:08:470 -> 1994.00
11:06:08:480 -> 2011.00
11:06:08:494 -> 2031.00
11:06:08:501 -> 2099.00
11:06:08:511 -> 1876.00
11:06:08:523 -> 2164.00
11:06:08:532 -> 2015.00
11:06:08:543 -> 2210.00
11:06:08:553 -> 1938.00
11:06:08:563 -> 2197.00
11:06:08:573 -> 1903.00
11:06:08:584 -> 2258.00
11:06:08:594 -> 1941.00
11:06:08:604 -> 2145.00
11:06:08:617 -> 1880.00
11:06:08:625 -> 2180.00
11:06:08:635 -> 1844.00
11:06:08:645 -> 2122.00
11:06:08:656 -> 2048.00
11:06:08:666 -> 2062.00
11:06:08:677 -> 1810.00
11:06:08:703 -> 2189.00
11:06:08:705 -> 1805.00
11:06:08:708 -> 2170.00
11:06:08:718 -> 1939.00
11:06:08:728 -> 2030.00
11:06:08:739 -> 1896.00
11:06:08:749 -> 2136.00
11:06:08:759 -> 2103.00
11:06:08:770 -> 1999.00
11:06:08:780 -> 2107.00
11:06:08:790 -> 1982.00
11:06:08:801 -> 1972.00
11:06:08:811 -> 1957.00
11:06:08:822 -> 2085.00
11:06:08:832 -> 1965.00
11:06:08:846 -> 2155.00
11:06:08:852 -> 1961.00
11:06:08:863 -> 2088.00
11:06:08:873 -> 1850.00
11:06:08:884 -> 2132.00
11:06:08:894 -> 1907.00
11:06:08:904 -> 2120.00
11:06:08:914 -> 1976.00
11:06:08:924 -> 2175.00
11:06:08:935 -> 1885.00
11:06:08:945 -> 2144.00
11:06:08:955 -> 1885.00
11:06:08:966 -> 2139.00
11:06:08:976 -> 1841.00
11:06:08:986 -> 2120.00
11:06:08:997 -> 1842.00
11:06:09:007 -> 2095.00
11:06:09:017 -> 1938.00
11:06:09:028 -> 2125.00
11:06:09:038 -> 1945.00
11:06:09:048 -> 2035.00
11:06:09:059 -> 1989.00
11:06:09:069 -> 2049.00
11:06:09:079 -> 1946.00
11:06:09:090 -> 2059.00
11:06:09:100 -> 2088.00
11:06:09:110 -> 2031.00
11:06:09:121 -> 2052.00
11:06:09:131 -> 1971.00
11:06:09:141 -> 2097.00
11:06:09:152 -> 1935.00
11:06:09:163 -> 2136.00
11:06:09:172 -> 1967.00
11:06:09:183 -> 2106.00
11:06:09:228 -> 1950.00
11:06:09:229 -> 2116.00
11:06:09:229 -> 2025.00
11:06:09:230 -> 2016.00
11:06:09:240 -> 2044.00
11:06:09:251 -> 2027.00
11:06:09:261 -> 2076.00
11:06:09:271 -> 1968.00
11:06:09:282 -> 2113.00
11:06:09:292 -> 1937.00
11:06:09:302 -> 2093.00
11:06:09:313 -> 1909.00
11:06:09:323 -> 2132.00
11:06:09:333 -> 1891.00
11:06:09:344 -> 2158.00
11:06:09:354 -> 1931.00
11:06:09:364 -> 2176.00
11:06:09:375 -> 1918.00
11:06:09:385 -> 2164.00
11:06:09:395 -> 1889.00
11:06:09:405 -> 2168.00
11:06:09:416 -> 1948.00
11:06:09:426 -> 2171.00
11:06:09:436 -> 1812.00
11:06:09:447 -> 2131.00
11:06:09:457 -> 1917.00
11:06:09:467 -> 2113.00
11:06:09:478 -> 1942.00
11:06:09:488 -> 2078.00
11:06:09:498 -> 1925.00
11:06:09:509 -> 2050.00
11:06:09:519 -> 1978.00
11:06:09:529 -> 2039.00
11:06:09:540 -> 2007.00
11:06:09:550 -> 2004.00
11:06:09:560 -> 2046.00
11:06:09:571 -> 2020.00
11:06:09:581 -> 2053.00
11:06:09:591 -> 1992.00
11:06:09:601 -> 2107.00
11:06:09:612 -> 1930.00
11:06:09:622 -> 2136.00
11:06:09:632 -> 1948.00
11:06:09:644 -> 2061.00
11:06:09:653 -> 1933.00
11:06:09:663 -> 2120.00
11:06:09:674 -> 1925.00
11:06:09:684 -> 2181.00
11:06:09:694 -> 1904.00
11:06:09:705 -> 2160.00
11:06:09:715 -> 1879.00
11:06:09:725 -> 2151.00
11:06:09:743 -> 1902.00
11:06:09:746 -> 2118.00
11:06:09:757 -> 1847.00
11:06:09:770 -> 2158.00
11:06:09:777 -> 1905.00
11:06:09:787 -> 2142.00
11:06:09:798 -> 1943.00
11:06:09:808 -> 2090.00
11:06:09:818 -> 1985.00
11:06:09:829 -> 2080.00
11:06:09:839 -> 1953.00
11:06:09:849 -> 2071.00
11:06:09:859 -> 1990.00
11:06:09:870 -> 2012.00
11:06:09:880 -> 2002.00
11:06:09:894 -> 2033.00
11:06:09:901 -> 2078.00
11:06:09:911 -> 1987.00
11:06:09:921 -> 2073.00
11:06:09:932 -> 1950.00
11:06:09:942 -> 2051.00
11:06:09:952 -> 1910.00
11:06:09:963 -> 2128.00
11:06:09:973 -> 1912.00
11:06:09:983 -> 2151.00
11:06:09:994 -> 1943.00
11:06:10:004 -> 2177.00
11:06:10:014 -> 1910.00
11:06:10:026 -> 2172.00
11:06:10:054 -> 1888.00
11:06:10:055 -> 2168.00
11:06:10:055 -> 1862.00
11:06:10:066 -> 2133.00
11:06:10:076 -> 1873.00
11:06:10:086 -> 2177.00
11:06:10:097 -> 1837.00
11:06:10:107 -> 2129.00
11:06:10:117 -> 1922.00
11:06:10:128 -> 2113.00
11:06:10:137 -> 1921.00
11:06:10:148 -> 2091.00
11:06:10:158 -> 1911.00
11:06:10:168 -> 2077.00
11:06:10:179 -> 1892.00
11:06:10:191 -> 2066.00
11:06:10:199 -> 1972.00
11:06:10:210 -> 2063.00
11:06:10:220 -> 2035.00
11:06:10:230 -> 1982.00
11:06:10:241 -> 2022.00
11:06:10:259 -> 1984.00
11:06:10:262 -> 2092.00
11:06:10:272 -> 1968.00
11:06:10:282 -> 2135.00
11:06:10:292 -> 1897.00
11:06:10:303 -> 2140.00
11:06:10:314 -> 1880.00
11:06:10:323 -> 2171.00
11:06:10:334 -> 1944.00
11:06:10:344 -> 2199.00
11:06:10:358 -> 1883.00
11:06:10:365 -> 2181.00
11:06:10:375 -> 1913.00
11:06:10:385 -> 2109.00
11:06:10:396 -> 1927.00
11:06:10:406 -> 2135.00
11:06:10:416 -> 1861.00
11:06:10:427 -> 2168.00
11:06:10:437 -> 1926.00
11:06:10:447 -> 2124.00
11:06:10:458 -> 1942.00
11:06:10:468 -> 2091.00
11:06:10:478 -> 1966.00
11:06:10:489 -> 2070.00
11:06:10:499 -> 1991.00
11:06:10:509 -> 2049.00
11:06:10:520 -> 2038.00
11:06:10:530 -> 2049.00
11:06:10:540 -> 2053.00
11:06:10:551 -> 1974.00
11:06:10:561 -> 2059.00
11:06:10:571 -> 1971.00
11:06:10:582 -> 2079.00
11:06:10:592 -> 1937.00
11:06:10:602 -> 2078.00
11:06:10:613 -> 1905.00
11:06:10:623 -> 2088.00
11:06:10:633 -> 1935.00
11:06:10:643 -> 2138.00
11:06:10:654 -> 1943.00
11:06:10:666 -> 2197.00
11:06:10:675 -> 1880.00
11:06:10:685 -> 2159.00
11:06:10:695 -> 1920.00
11:06:10:705 -> 2118.00
11:06:10:716 -> 1884.00
11:06:10:726 -> 2134.00
11:06:10:737 -> 1829.00
11:06:10:747 -> 2144.00
11:06:10:757 -> 1914.00
11:06:10:780 -> 2131.00
11:06:10:780 -> 1943.00
11:06:10:788 -> 2070.00
11:06:10:799 -> 1959.00
11:06:10:809 -> 2016.00
11:06:10:819 -> 2018.00
11:06:10:830 -> 2023.00
11:06:10:840 -> 2016.00
11:06:10:850 -> 2036.00
11:06:10:861 -> 2060.00
11:06:10:871 -> 1958.00
11:06:10:881 -> 2084.00
11:06:10:892 -> 1932.00
11:06:10:902 -> 2119.00
11:06:10:912 -> 1892.00
11:06:10:923 -> 2137.00
11:06:10:933 -> 1926.00
11:06:10:943 -> 2151.00
11:06:10:954 -> 1917.00
11:06:10:964 -> 2185.00
11:06:10:974 -> 1897.00
11:06:10:985 -> 2141.00
11:06:10:995 -> 1884.00
11:06:11:028 -> 2171.00
11:06:11:028 -> 1931.00
11:06:11:028 -> 2138.00
11:06:11:036 -> 1814.00
11:06:11:046 -> 2141.00
11:06:11:058 -> 1857.00
11:06:11:067 -> 2170.00
11:06:11:078 -> 1946.00
11:06:11:089 -> 2133.00
11:06:11:098 -> 1966.00
11:06:11:109 -> 2054.00
11:06:11:119 -> 2018.00
11:06:11:129 -> 1974.00
11:06:11:139 -> 2030.00
11:06:11:150 -> 2033.00
11:06:11:160 -> 2043.00
11:06:11:170 -> 2014.00
11:06:11:181 -> 2087.00
11:06:11:191 -> 1955.00
11:06:11:202 -> 2098.00
11:06:11:212 -> 1893.00
11:06:11:222 -> 2076.00
11:06:11:233 -> 1945.00
11:06:11:243 -> 2146.00
11:06:11:253 -> 1941.00
11:06:11:264 -> 2151.00
11:06:11:274 -> 1914.00
11:06:11:299 -> 2146.00
11:06:11:299 -> 1896.00
11:06:11:305 -> 2133.00
11:06:11:315 -> 1896.00
11:06:11:326 -> 2130.00
11:06:11:336 -> 1866.00
11:06:11:346 -> 2143.00
11:06:11:356 -> 1830.00
11:06:11:367 -> 2151.00
11:06:11:377 -> 1869.00
11:06:11:387 -> 2128.00
11:06:11:397 -> 1930.00
11:06:11:408 -> 2074.00
11:06:11:420 -> 1955.00
11:06:11:430 -> 1995.00
11:06:11:440 -> 2051.00
11:06:11:459 -> 1998.00
11:06:11:460 -> 2083.00
11:06:11:471 -> 1991.00
11:06:11:481 -> 2115.00
11:06:11:491 -> 1927.00
11:06:11:502 -> 2123.00
11:06:11:512 -> 1946.00
11:06:11:523 -> 2156.00
11:06:11:533 -> 1872.00
11:06:11:544 -> 2177.00
11:06:11:554 -> 1887.00
11:06:11:564 -> 2191.00
11:06:11:575 -> 1908.00
11:06:11:585 -> 2183.00
11:06:11:595 -> 1856.00
11:06:11:606 -> 2100.00
11:06:11:616 -> 1800.00
11:06:11:626 -> 2139.00
11:06:11:636 -> 1848.00
11:06:11:646 -> 2117.00
11:06:11:657 -> 1932.00
11:06:11:667 -> 2098.00
11:06:11:677 -> 1941.00
11:06:11:689 -> 2113.00
11:06:11:698 -> 1947.00
11:06:11:708 -> 2052.00
11:06:11:719 -> 2029.00
11:06:11:729 -> 2030.00
11:06:11:739 -> 2051.00
11:06:11:750 -> 2038.00
11:06:11:760 -> 2047.00
11:06:11:775 -> 1967.00
11:06:11:781 -> 2099.00
11:06:11:791 -> 1953.00
11:06:11:813 -> 2056.00
11:06:11:813 -> 1925.00
11:06:11:822 -> 2140.00
11:06:11:832 -> 1933.00
11:06:11:842 -> 2111.00
11:06:11:853 -> 1912.00
11:06:11:863 -> 2181.00
11:06:11:873 -> 1909.00
11:06:11:884 -> 2179.00
11:06:11:904 -> 1874.00
11:06:11:920 -> 2168.00
11:06:11:920 -> 1877.00
11:06:11:925 -> 2189.00
11:06:11:939 -> 1809.00
11:06:11:945 -> 2179.00
11:06:11:955 -> 1803.00
11:06:11:966 -> 2143.00
11:06:11:976 -> 1858.00
11:06:11:987 -> 2196.00
11:06:11:997 -> 1928.00
11:06:12:007 -> 2111.00
11:06:12:017 -> 1863.00
11:06:12:032 -> 2096.00
11:06:12:038 -> 1979.00
11:06:12:049 -> 2080.00
11:06:12:059 -> 2020.00
11:06:12:069 -> 2020.00
11:06:12:079 -> 2035.00
11:06:12:094 -> 2063.00
11:06:12:100 -> 2036.00
11:06:12:110 -> 1997.00
11:06:12:121 -> 2089.00
11:06:12:131 -> 1975.00
11:06:12:141 -> 2071.00
11:06:12:152 -> 1930.00
11:06:12:162 -> 2154.00
11:06:12:172 -> 1918.00
11:06:12:183 -> 2167.00
11:06:12:193 -> 1931.00
11:06:12:203 -> 2111.00
11:06:12:214 -> 1939.00
11:06:12:224 -> 2149.00
11:06:12:234 -> 1912.00
11:06:12:244 -> 2181.00
11:06:12:255 -> 1886.00
11:06:12:265 -> 2125.00
11:06:12:275 -> 1838.00
11:06:12:287 -> 2124.00
11:06:12:296 -> 1908.00
11:06:12:306 -> 2112.00
11:06:12:328 -> 1909.00
11:06:12:329 -> 2132.00
11:06:12:337 -> 1920.00
11:06:12:347 -> 2158.00
11:06:12:358 -> 1919.00
11:06:12:368 -> 2089.00
11:06:12:378 -> 1998.00
11:06:12:388 -> 2032.00
11:06:12:399 -> 2008.00
11:06:12:409 -> 1988.00
11:06:12:419 -> 2049.00
11:06:12:430 -> 1931.00
11:06:12:440 -> 2034.00
11:06:12:450 -> 1957.00
11:06:12:461 -> 2104.00
11:06:12:471 -> 1910.00
11:06:12:481 -> 2134.00
11:06:12:495 -> 1919.00
11:06:12:502 -> 2102.00
11:06:12:512 -> 1996.00
11:06:12:523 -> 2193.00
11:06:12:533 -> 1927.00
11:06:12:543 -> 2284.00
11:06:12:554 -> 1656.00
11:06:12:564 -> 2255.00
11:06:12:574 -> 1984.00
11:06:12:585 -> 2189.00
11:06:12:595 -> 2137.00
11:06:12:606 -> 2042.00
11:06:12:616 -> 1869.00
11:06:12:626 -> 1863.00
11:06:12:636 -> 1796.00
11:06:12:647 -> 2255.00
11:06:12:657 -> 1748.00
11:06:12:667 -> 2172.00
11:06:12:688 -> 2079.00
11:06:12:707 -> 1698.00
11:06:12:707 -> 2168.00
11:06:12:708 -> 1966.00
11:06:12:719 -> 2198.00
11:06:12:729 -> 1777.00
11:06:12:740 -> 2134.00
11:06:12:750 -> 2085.00
11:06:12:760 -> 2027.00
11:06:12:771 -> 2054.00
11:06:12:781 -> 2185.00
11:06:12:794 -> 1841.00
11:06:12:803 -> 2155.00
11:06:12:813 -> 1790.00
11:06:12:823 -> 2158.00
11:06:12:849 -> 1919.00
11:06:12:849 -> 2189.00
11:06:12:854 -> 1874.00
11:06:12:864 -> 2233.00
11:06:12:875 -> 1639.00
11:06:12:885 -> 1991.00
11:06:12:895 -> 1565.00
11:06:12:906 -> 2202.00
11:06:12:916 -> 1913.00
11:06:12:926 -> 2007.00
11:06:12:937 -> 1894.00
11:06:12:947 -> 2062.00
11:06:12:957 -> 1966.00
11:06:12:968 -> 2240.00
11:06:12:978 -> 1783.00
11:06:12:989 -> 1917.00
11:06:12:999 -> 2061.00
11:06:13:010 -> 1928.00
11:06:13:019 -> 2054.00
11:06:13:030 -> 2038.00
11:06:13:040 -> 2094.00
11:06:13:050 -> 1991.00
11:06:13:061 -> 1995.00
11:06:13:071 -> 1851.00
11:06:13:081 -> 2202.00
11:06:13:092 -> 1952.00
11:06:13:102 -> 2005.00
11:06:13:112 -> 1825.00
11:06:13:123 -> 2176.00
11:06:13:133 -> 2032.00
11:06:13:143 -> 2212.00
11:06:13:153 -> 1885.00
11:06:13:164 -> 2187.00
11:06:13:174 -> 1836.00
11:06:13:184 -> 2021.00
11:06:13:195 -> 1946.00
11:06:13:209 -> 2097.00
11:06:13:216 -> 1845.00
11:06:13:226 -> 2168.00
11:06:13:236 -> 1959.00
11:06:13:246 -> 2152.00
11:06:13:257 -> 1939.00
11:06:13:267 -> 1943.00
11:06:13:277 -> 1977.00
11:06:13:288 -> 2098.00
11:06:13:298 -> 2040.00
11:06:13:308 -> 1966.00
11:06:13:318 -> 2051.00
11:06:13:329 -> 2010.00
11:06:13:340 -> 2068.00
11:06:13:366 -> 2071.00
11:06:13:367 -> 2149.00
11:06:13:370 -> 1998.00
11:06:13:381 -> 2162.00
11:06:13:391 -> 1977.00
11:06:13:401 -> 2120.00
11:06:13:412 -> 1954.00
11:06:13:422 -> 2135.00
11:06:13:432 -> 1992.00
11:06:13:443 -> 2091.00
11:06:13:453 -> 1911.00
11:06:13:463 -> 2145.00
11:06:13:475 -> 1853.00
11:06:13:484 -> 2140.00
11:06:13:494 -> 1938.00
11:06:13:505 -> 2172.00
11:06:13:515 -> 1827.00
11:06:13:525 -> 2141.00
11:06:13:536 -> 1870.00
11:06:13:546 -> 2099.00
11:06:13:556 -> 1881.00
11:06:13:567 -> 2077.00
11:06:13:597 -> 1947.00
11:06:13:601 -> 2059.00
11:06:13:601 -> 2008.00
11:06:13:608 -> 2034.00
11:06:13:618 -> 2047.00
11:06:13:628 -> 2056.00
11:06:13:639 -> 1925.00
11:06:13:649 -> 2079.00
11:06:13:662 -> 2060.00
11:06:13:669 -> 1889.00
11:06:13:680 -> 2070.00
11:06:13:690 -> 1979.00
11:06:13:701 -> 2036.00
11:06:13:711 -> 1939.00
11:06:13:722 -> 2140.00
11:06:13:732 -> 1961.00
11:06:13:742 -> 2111.00
11:06:13:752 -> 1959.00
11:06:13:763 -> 2164.00
11:06:13:773 -> 1867.00
11:06:13:783 -> 2158.00
11:06:13:794 -> 1907.00
11:06:13:804 -> 2127.00
11:06:13:814 -> 1895.00
11:06:13:824 -> 2124.00
11:06:13:837 -> 2009.00
11:06:13:845 -> 2163.00
11:06:13:855 -> 1819.00
11:06:13:866 -> 2131.00
11:06:13:882 -> 1916.00
11:06:13:886 -> 2040.00
11:06:13:897 -> 1873.00
11:06:13:907 -> 2082.00
11:06:13:918 -> 1959.00
11:06:13:927 -> 2104.00
11:06:13:938 -> 1921.00
11:06:13:948 -> 2025.00
11:06:13:959 -> 2045.00
11:06:13:969 -> 1960.00
11:06:13:979 -> 2085.00
11:06:13:990 -> 1925.00
11:06:14:000 -> 2068.00
11:06:14:010 -> 1920.00
11:06:14:020 -> 2116.00
11:06:14:031 -> 1936.00
11:06:14:041 -> 2074.00
11:06:14:052 -> 1936.00
11:06:14:062 -> 2145.00
11:06:14:073 -> 1890.00
11:06:14:083 -> 2116.00
11:06:14:093 -> 1888.00
11:06:14:103 -> 2129.00
11:06:14:113 -> 1912.00
11:06:14:124 -> 2181.00
11:06:14:134 -> 1860.00
11:06:14:145 -> 2144.00
11:06:14:155 -> 2001.00
11:06:14:165 -> 2110.00
11:06:14:175 -> 1827.00
11:06:14:185 -> 2140.00
11:06:14:196 -> 1855.00
11:06:14:206 -> 2079.00
11:06:14:216 -> 1940.00
11:06:14:227 -> 2097.00
11:06:14:237 -> 1906.00
11:06:14:252 -> 2103.00
11:06:14:258 -> 2018.00
11:06:14:268 -> 2065.00
11:06:14:278 -> 2026.00
11:06:14:290 -> 2009.00
11:06:14:299 -> 2093.00
11:06:14:310 -> 1982.00
11:06:14:320 -> 2109.00
11:06:14:330 -> 1971.00
11:06:14:340 -> 2068.00
11:06:14:351 -> 1958.00
11:06:14:361 -> 2127.00
11:06:14:371 -> 1944.00
11:06:14:396 -> 2133.00
11:06:14:397 -> 1926.00
11:06:14:402 -> 2148.00
11:06:14:413 -> 1898.00
11:06:14:423 -> 2191.00
11:06:14:434 -> 1905.00
11:06:14:444 -> 2168.00
11:06:14:454 -> 1884.00
11:06:14:489 -> 2173.00
11:06:14:490 -> 1807.00
11:06:14:490 -> 2128.00
11:06:14:495 -> 1796.00
11:06:14:506 -> 2129.00
11:06:14:516 -> 1860.00
11:06:14:527 -> 2126.00
11:06:14:538 -> 1930.00
11:06:14:547 -> 2095.00
11:06:14:557 -> 1970.00
11:06:14:568 -> 2044.00
11:06:14:578 -> 2012.00
11:06:14:588 -> 2006.00
11:06:14:599 -> 2073.00
11:06:14:609 -> 2011.00
11:06:14:619 -> 2062.00
11:06:14:630 -> 1979.00
11:06:14:643 -> 2065.00
11:06:14:650 -> 1967.00
11:06:14:661 -> 2119.00
11:06:14:671 -> 1922.00
11:06:14:682 -> 2131.00
11:06:14:692 -> 1949.00
11:06:14:703 -> 2160.00
11:06:14:713 -> 1912.00
11:06:14:723 -> 2167.00
11:06:14:733 -> 1895.00
11:06:14:744 -> 2159.00
11:06:14:754 -> 1906.00
11:06:14:765 -> 2148.00
11:06:14:775 -> 1828.00
11:06:14:785 -> 2143.00
11:06:14:796 -> 1883.00
11:06:14:806 -> 2105.00
11:06:14:816 -> 1876.00
11:06:14:827 -> 2119.00
11:06:14:837 -> 1959.00
11:06:14:848 -> 2065.00
11:06:14:858 -> 2029.00
11:06:14:869 -> 2038.00
11:06:14:878 -> 2020.00
11:06:14:889 -> 1942.00
11:06:14:915 -> 2038.00
11:06:14:915 -> 1994.00
11:06:14:920 -> 2086.00
11:06:14:930 -> 1916.00
11:06:14:941 -> 2100.00
11:06:14:952 -> 1947.00
11:06:14:961 -> 2121.00
11:06:14:971 -> 1951.00
11:06:14:982 -> 2119.00
11:06:14:992 -> 1915.00
11:06:15:002 -> 2127.00
11:06:15:013 -> 1915.00
11:06:15:023 -> 2176.00
11:06:15:033 -> 1901.00
11:06:15:044 -> 2175.00
11:06:15:054 -> 1889.00
11:06:15:064 -> 2169.00
11:06:15:078 -> 1934.00
11:06:15:085 -> 2145.00
11:06:15:095 -> 1843.00
11:06:15:106 -> 2112.00
11:06:15:116 -> 1923.00
11:06:15:126 -> 2133.00
11:06:15:137 -> 1945.00
11:06:15:147 -> 2075.00
11:06:15:157 -> 1980.00
11:06:15:167 -> 2078.00
11:06:15:178 -> 1994.00
11:06:15:188 -> 2045.00
11:06:15:198 -> 2007.00
11:06:15:208 -> 2034.00
11:06:15:219 -> 2049.00
11:06:15:229 -> 1975.00
11:06:15:240 -> 2068.00
11:06:15:252 -> 1977.00
11:06:15:260 -> 2127.00
11:06:15:270 -> 1941.00
11:06:15:281 -> 2127.00
11:06:15:291 -> 1920.00
11:06:15:301 -> 2110.00
11:06:15:312 -> 1944.00
11:06:15:322 -> 2146.00
11:06:15:332 -> 1934.00
11:06:15:368 -> 2151.00
11:06:15:369 -> 1906.00
11:06:15:369 -> 2189.00
11:06:15:373 -> 1902.00
11:06:15:384 -> 2139.00
11:06:15:394 -> 1896.00
11:06:15:405 -> 2147.00
11:06:15:429 -> 1884.00
11:06:15:430 -> 2124.00
11:06:15:435 -> 1839.00
11:06:15:446 -> 2123.00
11:06:15:456 -> 1873.00
11:06:15:466 -> 2107.00
11:06:15:477 -> 1914.00
11:06:15:487 -> 2102.00
11:06:15:497 -> 1989.00
11:06:15:508 -> 2056.00
11:06:15:518 -> 1993.00
11:06:15:539 -> 2027.00
11:06:15:529 -> 2017.00
11:06:15:549 -> 2030.00
11:06:15:559 -> 2064.00
11:06:15:570 -> 1954.00
11:06:15:580 -> 2034.00
11:06:15:590 -> 1930.00
11:06:15:601 -> 2150.00
11:06:15:611 -> 1931.00
11:06:15:621 -> 2105.00
11:06:15:631 -> 1905.00
11:06:15:642 -> 2124.00
11:06:15:652 -> 1916.00
11:06:15:662 -> 2130.00
11:06:15:673 -> 1848.00
11:06:15:683 -> 2121.00
11:06:15:693 -> 1886.00
11:06:15:704 -> 2179.00
11:06:15:714 -> 1851.00
11:06:15:724 -> 2146.00
11:06:15:735 -> 1925.00
11:06:15:745 -> 2188.00
11:06:15:755 -> 1846.00
11:06:15:766 -> 2097.00
11:06:15:776 -> 1935.00
11:06:15:786 -> 2114.00
11:06:15:797 -> 1917.00
11:06:15:807 -> 2079.00
11:06:15:817 -> 1966.00
11:06:15:828 -> 2063.00
11:06:15:838 -> 2024.00
11:06:15:848 -> 2047.00
11:06:15:859 -> 2048.00
11:06:15:869 -> 2042.00
11:06:15:879 -> 1992.00
11:06:15:892 -> 1965.00
11:06:15:900 -> 2066.00
11:06:15:910 -> 1940.00
11:06:15:920 -> 2116.00
11:06:15:950 -> 1955.00
11:06:15:951 -> 2128.00
11:06:15:951 -> 1967.00
11:06:15:962 -> 2176.00
11:06:15:972 -> 1957.00
11:06:15:982 -> 2108.00
11:06:15:993 -> 1926.00
11:06:16:003 -> 2133.00
11:06:16:013 -> 1917.00
11:06:16:024 -> 2165.00
11:06:16:034 -> 1928.00
11:06:16:048 -> 2169.00
11:06:16:054 -> 2009.00
11:06:16:065 -> 2168.00
11:06:16:075 -> 1756.00
11:06:16:085 -> 2200.00
11:06:16:096 -> 1929.00
11:06:16:106 -> 2017.00
11:06:16:116 -> 2001.00
11:06:16:127 -> 2100.00
11:06:16:137 -> 1836.00
11:06:16:147 -> 2079.00
11:06:16:158 -> 1967.00
11:06:16:168 -> 2108.00
11:06:16:180 -> 2043.00
11:06:16:192 -> 1962.00
11:06:16:200 -> 2136.00
11:06:16:211 -> 1903.00
11:06:16:222 -> 2187.00
11:06:16:232 -> 1898.00
11:06:16:242 -> 2257.00
11:06:16:253 -> 1957.00
11:06:16:263 -> 2195.00
11:06:16:273 -> 1934.00
11:06:16:294 -> 1899.00
11:06:16:283 -> 2170.00
11:06:16:304 -> 2160.00
11:06:16:315 -> 1966.00
11:06:16:325 -> 2131.00
11:06:16:335 -> 1854.00
11:06:16:371 -> 2123.00
11:06:16:372 -> 1891.00
11:06:16:372 -> 2023.00
11:06:16:376 -> 1844.00
11:06:16:386 -> 2174.00
11:06:16:397 -> 2010.00
11:06:16:407 -> 2121.00
11:06:16:418 -> 1982.00
11:06:16:431 -> 2003.00
11:06:16:438 -> 1914.00
11:06:16:448 -> 2018.00
11:06:16:465 -> 2009.00
11:06:16:469 -> 2103.00
11:06:16:479 -> 2088.00
11:06:16:490 -> 2028.00
11:06:16:500 -> 2111.00
11:06:16:511 -> 1905.00
11:06:16:521 -> 2102.00
11:06:16:532 -> 1995.00
11:06:16:541 -> 2123.00
11:06:16:552 -> 1894.00
11:06:16:562 -> 2099.00
11:06:16:572 -> 1857.00
11:06:16:583 -> 2273.00
11:06:16:593 -> 1995.00
11:06:16:603 -> 2215.00
11:06:16:614 -> 1947.00
11:06:16:628 -> 2145.00
11:06:16:634 -> 1976.00
11:06:16:645 -> 2164.00
11:06:16:655 -> 1926.00
11:06:16:665 -> 2141.00
11:06:16:676 -> 1678.00
11:06:16:686 -> 2300.00
11:06:16:696 -> 1987.00
11:06:16:706 -> 2195.00
11:06:16:717 -> 2004.00
11:06:16:727 -> 1974.00
11:06:16:738 -> 2015.00
11:06:16:748 -> 2039.00
11:06:16:758 -> 2081.00
11:06:16:768 -> 1894.00
11:06:16:779 -> 2263.00
11:06:16:789 -> 1998.00
11:06:16:800 -> 2015.00
11:06:16:810 -> 1932.00
11:06:16:820 -> 1992.00
11:06:16:830 -> 1833.00
11:06:16:841 -> 2232.00
11:06:16:851 -> 1869.00
11:06:16:861 -> 2144.00
11:06:16:872 -> 1801.00
11:06:16:882 -> 2056.00
11:06:16:892 -> 1934.00
11:06:16:903 -> 2188.00
11:06:16:913 -> 1868.00
11:06:16:923 -> 2234.00
11:06:16:934 -> 1958.00
11:06:16:944 -> 2079.00
11:06:16:954 -> 2012.00
11:06:16:979 -> 2124.00
11:06:16:980 -> 1860.00
11:06:16:985 -> 2111.00
11:06:16:996 -> 1905.00
11:06:17:006 -> 1888.00
11:06:17:016 -> 1903.00
11:06:17:027 -> 2122.00
11:06:17:037 -> 1870.00
11:06:17:049 -> 2040.00
11:06:17:057 -> 1863.00
11:06:17:068 -> 2102.00
11:06:17:078 -> 2101.00
11:06:17:088 -> 1998.00
11:06:17:099 -> 2004.00
11:06:17:109 -> 2045.00
11:06:17:120 -> 2101.00
11:06:17:130 -> 1925.00
11:06:17:140 -> 2127.00
11:06:17:151 -> 2102.00
11:06:17:161 -> 2182.00
11:06:17:171 -> 1951.00
11:06:17:181 -> 2164.00
11:06:17:192 -> 1885.00
11:06:17:202 -> 2137.00
11:06:17:213 -> 1766.00
11:06:17:223 -> 2188.00
11:06:17:233 -> 1881.00
11:06:17:244 -> 2142.00
11:06:17:254 -> 1876.00
11:06:17:264 -> 2289.00
11:06:17:274 -> 2017.00
11:06:17:285 -> 2141.00
11:06:17:295 -> 1832.00
11:06:17:305 -> 2079.00
11:06:17:316 -> 1913.00
11:06:17:326 -> 2122.00
11:06:17:336 -> 1855.00
11:06:17:347 -> 2056.00
11:06:17:357 -> 1975.00
11:06:17:367 -> 2018.00
11:06:17:378 -> 2030.00
11:06:17:388 -> 2052.00
11:06:17:398 -> 2076.00
11:06:17:409 -> 1953.00
11:06:17:419 -> 2016.00
11:06:17:429 -> 1957.00
11:06:17:440 -> 2068.00
11:06:17:450 -> 1917.00
11:06:17:461 -> 2108.00
11:06:17:471 -> 1960.00
11:06:17:496 -> 2160.00
11:06:17:496 -> 1941.00
11:06:17:502 -> 2108.00
11:06:17:513 -> 1869.00
11:06:17:545 -> 2165.00
11:06:17:545 -> 1898.00
11:06:17:545 -> 2174.00
11:06:17:553 -> 1896.00
11:06:17:563 -> 2140.00
11:06:17:574 -> 1856.00
11:06:17:584 -> 2192.00
11:06:17:594 -> 1984.00
11:06:17:605 -> 2177.00
11:06:17:615 -> 1855.00
11:06:17:626 -> 2111.00
11:06:17:636 -> 1837.00
11:06:17:646 -> 2070.00
11:06:17:657 -> 1866.00
11:06:17:667 -> 2100.00
11:06:17:677 -> 1929.00
11:06:17:688 -> 2107.00
11:06:17:698 -> 2022.00
11:06:17:709 -> 2000.00
11:06:17:719 -> 1993.00
11:06:17:729 -> 1925.00
11:06:17:743 -> 2093.00
11:06:17:750 -> 1935.00
11:06:17:760 -> 2116.00
11:06:17:771 -> 1935.00
11:06:17:781 -> 2133.00
11:06:17:791 -> 1944.00
11:06:17:802 -> 2171.00
11:06:17:812 -> 1949.00
11:06:17:822 -> 2199.00
11:06:17:832 -> 1872.00
11:06:17:843 -> 2167.00
11:06:17:853 -> 1875.00
11:06:17:863 -> 2150.00
11:06:17:874 -> 1877.00
11:06:17:885 -> 2188.00
11:06:17:895 -> 1823.00
11:06:17:905 -> 2128.00
11:06:17:920 -> 1878.00
11:06:17:926 -> 2173.00
11:06:17:936 -> 1897.00
11:06:17:947 -> 2140.00
11:06:17:957 -> 1959.00
11:06:17:967 -> 2057.00
11:06:17:978 -> 2003.00
11:06:17:988 -> 2046.00
11:06:18:013 -> 2043.00
11:06:18:013 -> 1989.00
11:06:18:019 -> 2007.00
11:06:18:029 -> 1985.00
11:06:18:040 -> 2011.00
11:06:18:050 -> 1971.00
11:06:18:061 -> 2048.00
11:06:18:071 -> 1934.00
11:06:18:081 -> 2137.00
11:06:18:092 -> 1925.00
11:06:18:102 -> 2149.00
11:06:18:112 -> 1922.00
11:06:18:122 -> 2168.00
11:06:18:133 -> 1906.00
11:06:18:143 -> 2183.00
11:06:18:154 -> 1878.00
11:06:18:164 -> 2184.00
11:06:18:174 -> 1863.00
11:06:18:184 -> 2159.00
11:06:18:195 -> 1809.00
11:06:18:205 -> 2172.00
11:06:18:216 -> 1853.00
11:06:18:226 -> 2159.00
11:06:18:236 -> 1909.00
11:06:18:247 -> 2086.00
11:06:18:257 -> 1910.00
11:06:18:268 -> 2090.00
11:06:18:278 -> 2000.00
11:06:18:288 -> 2026.00
11:06:18:298 -> 2060.00
11:06:18:309 -> 2008.00
11:06:18:319 -> 2033.00
11:06:18:329 -> 1999.00
11:06:18:339 -> 2110.00
11:06:18:350 -> 1927.00
11:06:18:360 -> 2073.00
11:06:18:371 -> 1947.00
11:06:18:381 -> 2096.00
11:06:18:391 -> 1934.00
11:06:18:423 -> 2190.00
11:06:18:425 -> 1935.00
11:06:18:425 -> 2104.00
11:06:18:432 -> 1815.00
11:06:18:446 -> 2197.00
11:06:18:453 -> 1921.00
11:06:18:463 -> 2156.00
11:06:18:473 -> 1906.00
11:06:18:484 -> 2187.00
11:06:18:494 -> 1940.00
11:06:18:504 -> 2178.00
11:06:18:529 -> 1847.00
11:06:18:530 -> 2197.00
11:06:18:535 -> 1829.00
11:06:18:546 -> 2094.00
11:06:18:556 -> 1864.00
11:06:18:566 -> 2105.00
11:06:18:577 -> 1966.00
11:06:18:587 -> 2130.00
11:06:18:597 -> 2002.00
11:06:18:608 -> 2057.00
11:06:18:618 -> 2026.00
11:06:18:628 -> 2087.00
11:06:18:639 -> 2061.00
11:06:18:649 -> 2086.00
11:06:18:659 -> 2143.00
11:06:18:669 -> 1889.00
11:06:18:680 -> 2092.00
11:06:18:690 -> 1974.00
11:06:18:701 -> 2083.00
11:06:18:710 -> 2055.00
11:06:18:721 -> 2132.00
11:06:18:731 -> 1849.00
11:06:18:741 -> 2382.00
11:06:18:752 -> 1905.00
11:06:18:762 -> 2248.00
11:06:18:772 -> 1895.00
11:06:18:783 -> 2027.00
11:06:18:796 -> 1862.00
11:06:18:804 -> 2344.00
11:06:18:814 -> 1576.00
11:06:18:824 -> 2301.00
11:06:18:834 -> 1700.00
11:06:18:845 -> 2374.00
11:06:18:856 -> 1749.00
11:06:18:866 -> 2337.00
11:06:18:876 -> 1813.00
11:06:18:886 -> 2075.00
11:06:18:897 -> 2031.00
11:06:18:907 -> 2231.00
11:06:18:917 -> 1859.00
11:06:18:928 -> 2179.00
11:06:18:938 -> 1941.00
11:06:18:949 -> 2054.00
11:06:18:958 -> 1928.00
11:06:18:969 -> 1988.00
11:06:18:979 -> 2096.00
11:06:18:989 -> 1980.00
11:06:18:999 -> 2099.00
11:06:19:010 -> 1991.00
11:06:19:020 -> 2091.00
11:06:19:044 -> 1893.00
11:06:19:045 -> 2111.00
11:06:19:051 -> 1973.00
11:06:19:061 -> 2074.00
11:06:19:071 -> 1867.00
11:06:19:082 -> 2104.00
11:06:19:095 -> 1962.00
11:06:19:103 -> 1956.00
11:06:19:113 -> 1972.00
11:06:19:123 -> 2145.00
11:06:19:133 -> 1865.00
11:06:19:144 -> 2100.00
11:06:19:154 -> 1943.00
11:06:19:164 -> 2191.00
11:06:19:175 -> 1974.00
11:06:19:185 -> 2156.00
11:06:19:195 -> 1546.00
11:06:19:206 -> 2133.00
11:06:19:216 -> 2014.00
11:06:19:226 -> 2080.00
11:06:19:236 -> 1940.00
11:06:19:247 -> 2114.00
11:06:19:257 -> 1938.00
11:06:19:267 -> 2105.00
11:06:19:277 -> 2020.00
11:06:19:288 -> 2007.00
11:06:19:298 -> 1897.00
11:06:19:309 -> 1952.00
11:06:19:319 -> 2009.00
11:06:19:329 -> 1989.00
11:06:19:339 -> 2185.00
11:06:19:350 -> 1922.00
11:06:19:360 -> 2157.00
11:06:19:370 -> 1895.00
11:06:19:381 -> 2329.00
11:06:19:393 -> 1814.00
11:06:19:401 -> 2164.00
11:06:19:411 -> 1783.00
11:06:19:444 -> 2148.00
11:06:19:444 -> 1925.00
11:06:19:444 -> 2217.00
11:06:19:452 -> 1771.00
11:06:19:463 -> 2214.00
11:06:19:473 -> 1823.00
11:06:19:483 -> 2103.00
11:06:19:494 -> 1908.00
11:06:19:504 -> 2129.00
11:06:19:514 -> 2002.00
11:06:19:525 -> 2159.00
11:06:19:535 -> 1815.00
11:06:19:560 -> 2075.00
11:06:19:561 -> 1800.00
11:06:19:566 -> 2131.00
11:06:19:576 -> 1977.00
11:06:19:586 -> 1976.00
11:06:19:597 -> 1992.00
11:06:19:607 -> 2110.00
11:06:19:617 -> 2104.00
11:06:19:628 -> 1954.00
11:06:19:638 -> 2249.00
11:06:19:648 -> 2097.00
11:06:19:659 -> 2177.00
11:06:19:669 -> 1936.00
11:06:19:680 -> 2018.00
11:06:19:690 -> 1957.00
11:06:19:700 -> 2005.00
11:06:19:710 -> 1903.00
11:06:19:721 -> 2161.00
11:06:19:731 -> 1931.00
11:06:19:741 -> 2099.00
11:06:19:752 -> 1951.00
11:06:19:762 -> 2189.00
11:06:19:773 -> 1860.00
11:06:19:783 -> 2132.00
11:06:19:793 -> 1958.00
11:06:19:803 -> 2099.00
11:06:19:814 -> 1907.00
11:06:19:824 -> 2141.00
11:06:19:834 -> 1949.00
11:06:19:845 -> 2127.00
11:06:19:855 -> 1840.00
11:06:19:865 -> 2125.00
11:06:19:876 -> 1922.00
11:06:19:886 -> 2088.00
11:06:19:896 -> 1947.00
11:06:19:907 -> 2062.00
11:06:19:917 -> 1963.00
11:06:19:930 -> 2021.00
11:06:19:938 -> 2046.00
11:06:19:948 -> 2074.00
11:06:19:958 -> 2000.00
11:06:19:969 -> 2014.00
11:06:19:979 -> 2116.00
11:06:19:989 -> 1889.00
11:06:20:000 -> 2114.00
11:06:20:010 -> 1944.00
11:06:20:020 -> 2123.00
11:06:20:031 -> 1907.00
11:06:20:041 -> 2103.00
11:06:20:051 -> 1936.00
11:06:20:076 -> 2159.00
11:06:20:077 -> 1931.00
11:06:20:086 -> 2161.00
11:06:20:092 -> 1892.00
11:06:20:103 -> 2152.00
11:06:20:113 -> 1900.00
11:06:20:123 -> 2162.00
11:06:20:133 -> 1900.00
11:06:20:144 -> 2150.00
11:06:20:154 -> 2023.00
11:06:20:164 -> 2131.00
11:06:20:175 -> 1850.00
11:06:20:185 -> 2153.00
11:06:20:195 -> 1884.00
11:06:20:206 -> 1999.00
11:06:20:216 -> 1870.00
11:06:20:226 -> 2066.00
11:06:20:263 -> 1976.00
11:06:20:264 -> 2013.00
11:06:20:264 -> 2002.00
11:06:20:267 -> 2061.00
11:06:20:278 -> 2018.00
11:06:20:288 -> 2064.00
11:06:20:298 -> 1972.00
11:06:20:308 -> 2013.00
11:06:20:319 -> 2063.00
11:06:20:329 -> 2009.00
11:06:20:339 -> 2047.00
11:06:20:350 -> 1936.00
11:06:20:360 -> 2072.00
11:06:20:370 -> 1913.00
11:06:20:380 -> 2109.00
11:06:20:391 -> 1942.00
11:06:20:401 -> 2130.00
11:06:20:411 -> 1930.00
11:06:20:422 -> 2167.00
11:06:20:432 -> 1918.00
11:06:20:442 -> 2161.00
11:06:20:453 -> 1882.00
11:06:20:463 -> 2180.00
11:06:20:480 -> 1847.00
11:06:20:490 -> 1947.00
11:06:20:503 -> 2062.00
11:06:20:511 -> 1963.00
11:06:20:521 -> 2082.00
11:06:20:533 -> 1963.00
11:06:20:543 -> 2153.00
11:06:20:553 -> 1886.00
11:06:20:564 -> 2158.00
11:06:20:574 -> 1950.00
11:06:20:594 -> 2172.00
11:06:20:595 -> 1842.00
11:06:20:605 -> 2139.00
11:06:20:615 -> 1924.00
11:06:20:627 -> 2144.00
11:06:20:636 -> 1891.00
11:06:20:646 -> 2074.00
11:06:20:656 -> 1964.00
11:06:20:667 -> 2082.00
11:06:20:677 -> 1957.00
11:06:20:687 -> 2041.00
11:06:20:698 -> 1989.00
11:06:20:708 -> 2038.00
11:06:20:720 -> 2084.00
11:06:20:729 -> 1987.00
11:06:20:739 -> 2068.00
11:06:20:749 -> 1946.00
11:06:20:760 -> 2052.00
11:06:20:770 -> 1929.00
11:06:20:780 -> 2112.00
11:06:20:790 -> 1920.00
11:06:20:801 -> 2115.00
11:06:20:811 -> 1928.00
11:06:20:822 -> 2183.00
11:06:20:832 -> 1907.00
11:06:20:842 -> 2181.00
11:06:20:852 -> 1906.00
11:06:20:863 -> 2173.00
11:06:20:873 -> 1882.00
11:06:20:884 -> 2133.00
11:06:20:894 -> 1839.00
11:06:20:904 -> 2175.00
11:06:20:915 -> 1833.00
11:06:20:925 -> 2131.00
11:06:20:935 -> 1926.00
11:06:20:946 -> 2113.00
11:06:20:956 -> 1917.00
11:06:20:966 -> 2065.00
11:06:20:976 -> 1960.00
11:06:20:987 -> 1960.00
11:06:20:997 -> 2011.00
11:06:21:008 -> 1980.00
11:06:21:018 -> 1973.00
11:06:21:028 -> 2031.00
11:06:21:039 -> 2094.00
11:06:21:049 -> 1995.00
11:06:21:059 -> 2093.00
11:06:21:070 -> 1991.00
11:06:21:080 -> 2091.00
11:06:21:090 -> 1932.00
11:06:21:108 -> 2122.00
11:06:21:111 -> 1930.00
11:06:21:122 -> 2155.00
11:06:21:132 -> 1916.00
11:06:21:142 -> 2179.00
11:06:21:153 -> 1879.00
11:06:21:163 -> 2173.00
11:06:21:173 -> 1888.00
11:06:21:185 -> 2122.00
11:06:21:194 -> 1826.00
11:06:21:204 -> 2195.00
11:06:21:214 -> 1845.00
11:06:21:224 -> 2139.00
11:06:21:235 -> 1876.00
11:06:21:267 -> 2126.00
11:06:21:268 -> 1849.00
11:06:21:268 -> 2076.00
11:06:21:276 -> 1972.00
11:06:21:286 -> 2093.00
11:06:21:299 -> 1947.00
11:06:21:307 -> 2054.00
11:06:21:317 -> 2028.00
11:06:21:328 -> 2021.00
11:06:21:338 -> 2040.00
11:06:21:348 -> 2007.00
11:06:21:359 -> 2003.00
11:06:21:369 -> 1976.00
11:06:21:379 -> 2067.00
11:06:21:390 -> 1949.00
11:06:21:400 -> 2113.00
11:06:21:412 -> 1935.00
11:06:21:421 -> 2076.00
11:06:21:431 -> 1966.00
11:06:21:442 -> 2146.00
11:06:21:452 -> 1872.00
11:06:21:462 -> 2174.00
11:06:21:473 -> 1891.00
11:06:21:483 -> 2102.00
11:06:21:493 -> 1877.00
11:06:21:504 -> 2175.00
11:06:21:514 -> 1871.00
11:06:21:524 -> 2206.00
11:06:21:535 -> 1815.00
11:06:21:545 -> 2189.00
11:06:21:555 -> 1898.00
11:06:21:565 -> 2044.00
11:06:21:576 -> 1974.00
11:06:21:586 -> 2066.00
11:06:21:597 -> 2038.00
11:06:21:607 -> 2068.00
11:06:21:629 -> 2090.00
11:06:21:630 -> 2024.00
11:06:21:638 -> 2094.00
11:06:21:648 -> 2028.00
11:06:21:658 -> 2052.00
11:06:21:669 -> 2033.00
11:06:21:679 -> 2068.00
11:06:21:690 -> 1866.00
11:06:21:700 -> 2037.00
11:06:21:711 -> 1986.00
11:06:21:721 -> 2101.00
11:06:21:731 -> 1929.00
11:06:21:742 -> 2032.00
11:06:21:752 -> 1885.00
11:06:21:762 -> 2233.00
11:06:21:772 -> 2105.00
11:06:21:783 -> 2415.00
11:06:21:793 -> 1853.00
11:06:21:803 -> 2319.00
11:06:21:814 -> 2019.00
11:06:21:824 -> 2009.00
11:06:21:834 -> 2106.00
11:06:21:844 -> 2019.00
11:06:21:855 -> 1932.00
11:06:21:865 -> 2192.00
11:06:21:875 -> 1858.00
11:06:21:885 -> 2093.00
11:06:21:896 -> 2062.00
11:06:21:906 -> 1973.00
11:06:21:917 -> 2104.00
11:06:21:927 -> 2112.00
11:06:21:937 -> 1997.00
11:06:21:948 -> 2045.00
11:06:21:958 -> 1866.00
11:06:21:968 -> 2050.00
11:06:21:979 -> 1985.00
11:06:21:989 -> 1940.00
11:06:21:999 -> 2145.00
11:06:22:010 -> 1855.00
11:06:22:020 -> 2113.00
11:06:22:030 -> 1951.00
11:06:22:041 -> 2097.00
11:06:22:051 -> 1917.00
11:06:22:061 -> 2166.00
11:06:22:072 -> 2035.00
11:06:22:083 -> 1939.00
11:06:22:093 -> 1991.00
11:06:22:103 -> 2129.00
11:06:22:117 -> 1891.00
11:06:22:123 -> 2359.00
11:06:22:150 -> 1901.00
11:06:22:152 -> 2186.00
11:06:22:154 -> 1951.00
11:06:22:165 -> 2127.00
11:06:22:175 -> 1821.00
11:06:22:185 -> 2106.00
11:06:22:196 -> 1869.00
11:06:22:229 -> 2106.00
11:06:22:229 -> 1886.00
11:06:22:229 -> 2190.00
11:06:22:237 -> 1896.00
11:06:22:247 -> 2141.00
11:06:22:260 -> 2005.00
11:06:22:268 -> 2024.00
11:06:22:278 -> 2135.00
11:06:22:288 -> 1848.00
11:06:22:299 -> 2107.00
11:06:22:309 -> 2053.00
11:06:22:319 -> 2041.00
11:06:22:329 -> 1976.00
11:06:22:340 -> 2165.00
11:06:22:350 -> 1988.00
11:06:22:360 -> 2077.00
11:06:22:371 -> 2070.00
11:06:22:381 -> 2109.00
11:06:22:397 -> 1975.00
11:06:22:402 -> 2185.00
11:06:22:412 -> 1923.00
11:06:22:422 -> 2216.00
11:06:22:433 -> 1747.00
11:06:22:443 -> 1987.00
11:06:22:454 -> 1910.00
11:06:22:464 -> 2147.00
11:06:22:474 -> 1988.00
11:06:22:487 -> 2144.00
11:06:22:495 -> 1939.00
11:06:22:505 -> 2109.00
11:06:22:515 -> 1920.00
11:06:22:526 -> 2154.00
11:06:22:537 -> 1915.00
11:06:22:547 -> 1961.00
11:06:22:557 -> 1884.00
11:06:22:567 -> 2164.00
11:06:22:578 -> 1917.00
11:06:22:588 -> 2097.00
11:06:22:598 -> 2072.00
11:06:22:609 -> 1949.00
11:06:22:619 -> 2069.00
11:06:22:630 -> 1970.00
11:06:22:640 -> 2087.00
11:06:22:666 -> 1794.00
11:06:22:667 -> 2090.00
11:06:22:671 -> 2017.00
11:06:22:681 -> 2191.00
11:06:22:692 -> 1947.00
11:06:22:702 -> 2115.00
11:06:22:712 -> 1911.00
11:06:22:723 -> 2216.00
11:06:22:733 -> 1964.00
11:06:22:743 -> 2195.00
11:06:22:754 -> 1888.00
11:06:22:764 -> 2177.00
11:06:22:774 -> 1990.00
11:06:22:786 -> 2130.00
11:06:22:795 -> 1838.00
11:06:22:805 -> 2103.00
11:06:22:816 -> 1877.00
11:06:22:826 -> 2128.00
11:06:22:836 -> 1934.00
11:06:22:846 -> 2037.00
11:06:22:857 -> 1958.00
11:06:22:867 -> 1993.00
11:06:22:877 -> 2045.00
11:06:22:888 -> 2085.00
11:06:22:898 -> 2044.00
11:06:22:908 -> 2004.00
11:06:22:919 -> 2047.00
11:06:22:929 -> 1960.00
11:06:22:939 -> 2084.00
11:06:22:949 -> 1954.00
11:06:22:960 -> 2084.00
11:06:22:970 -> 1961.00
11:06:22:980 -> 2091.00
11:06:22:991 -> 1928.00
11:06:23:002 -> 2169.00
11:06:23:011 -> 1929.00
11:06:23:022 -> 2123.00
11:06:23:032 -> 1888.00
11:06:23:042 -> 2163.00
11:06:23:076 -> 1833.00
11:06:23:077 -> 2148.00
11:06:23:077 -> 1846.00
11:06:23:084 -> 2157.00
11:06:23:099 -> 1916.00
11:06:23:104 -> 2186.00
11:06:23:115 -> 1891.00
11:06:23:125 -> 2036.00
11:06:23:139 -> 1832.00
11:06:23:149 -> 2002.00
11:06:23:160 -> 2032.00
11:06:23:181 -> 1952.00
11:06:23:182 -> 2079.00
11:06:23:191 -> 1938.00
11:06:23:201 -> 2144.00
11:06:23:211 -> 1896.00
11:06:23:222 -> 2179.00
11:06:23:234 -> 1912.00
11:06:23:243 -> 2178.00
11:06:23:253 -> 1836.00
11:06:23:263 -> 2181.00
11:06:23:274 -> 1894.00
11:06:23:284 -> 2151.00
11:06:23:294 -> 1870.00
11:06:23:304 -> 2186.00
11:06:23:315 -> 1792.00
11:06:23:325 -> 2125.00
11:06:23:335 -> 1850.00
11:06:23:346 -> 2121.00
11:06:23:356 -> 1872.00
11:06:23:366 -> 2101.00
11:06:23:377 -> 1961.00
11:06:23:389 -> 2081.00
11:06:23:397 -> 1964.00
11:06:23:407 -> 2049.00
11:06:23:418 -> 2048.00
11:06:23:428 -> 2020.00
11:06:23:438 -> 2051.00
11:06:23:448 -> 1963.00
11:06:23:459 -> 2064.00
11:06:23:469 -> 1980.00
11:06:23:480 -> 2096.00
11:06:23:490 -> 1924.00
11:06:23:501 -> 2081.00
11:06:23:511 -> 1941.00
11:06:23:521 -> 2126.00
11:06:23:531 -> 1910.00
11:06:23:542 -> 2203.00
11:06:23:552 -> 1905.00
11:06:23:562 -> 2151.00
11:06:23:573 -> 1893.00
11:06:23:583 -> 2114.00
11:06:23:593 -> 1891.00
11:06:23:603 -> 2138.00
11:06:23:614 -> 1902.00
11:06:23:624 -> 2171.00
11:06:23:635 -> 1829.00
11:06:23:645 -> 2135.00
11:06:23:655 -> 1809.00
11:06:23:665 -> 2158.00
11:06:23:676 -> 1912.00
11:06:23:705 -> 2167.00
11:06:23:705 -> 1929.00
11:06:23:707 -> 2102.00
11:06:23:717 -> 1962.00
11:06:23:728 -> 1998.00
11:06:23:738 -> 2035.00
11:06:23:748 -> 2037.00
11:06:23:758 -> 2046.00
11:06:23:769 -> 1991.00
11:06:23:779 -> 2080.00
11:06:23:789 -> 1946.00
11:06:23:800 -> 2101.00
11:06:23:810 -> 1869.00
11:06:23:820 -> 2114.00
11:06:23:831 -> 1938.00
11:06:23:841 -> 2063.00
11:06:23:851 -> 1952.00
11:06:23:862 -> 2200.00
11:06:23:872 -> 1919.00
11:06:23:882 -> 2183.00
11:06:23:898 -> 1902.00
11:06:23:903 -> 2184.00
11:06:23:913 -> 1884.00
11:06:23:924 -> 2183.00
11:06:23:934 -> 1901.00
11:06:23:944 -> 2164.00
11:06:23:955 -> 1814.00
11:06:23:965 -> 2150.00
11:06:23:975 -> 1867.00
11:06:23:985 -> 2143.00
11:06:23:996 -> 1944.00
11:06:24:006 -> 2117.00
11:06:24:017 -> 1920.00
11:06:24:053 -> 2090.00
11:06:24:053 -> 1991.00
11:06:24:053 -> 2054.00
11:06:24:058 -> 2111.00
11:06:24:068 -> 2025.00
11:06:24:079 -> 2029.00
11:06:24:089 -> 2005.00
11:06:24:100 -> 2094.00
11:06:24:110 -> 1950.00
11:06:24:120 -> 2074.00
11:06:24:130 -> 1903.00
11:06:24:141 -> 2120.00
11:06:24:151 -> 1930.00
11:06:24:162 -> 2164.00
11:06:24:172 -> 1877.00
11:06:24:182 -> 2169.00
11:06:24:192 -> 1852.00
11:06:24:203 -> 2180.00
11:06:24:224 -> 1860.00
11:06:24:224 -> 2061.00
11:06:24:234 -> 1883.00
11:06:24:244 -> 2176.00
11:06:24:254 -> 1924.00
11:06:24:265 -> 2228.00
11:06:24:275 -> 1838.00
11:06:24:285 -> 2155.00
11:06:24:296 -> 1868.00
11:06:24:306 -> 2178.00
11:06:24:316 -> 1988.00
11:06:24:326 -> 2088.00
11:06:24:336 -> 1961.00
11:06:24:347 -> 2139.00
11:06:24:357 -> 1876.00
11:06:24:367 -> 1991.00
11:06:24:378 -> 2026.00
11:06:24:389 -> 2051.00
11:06:24:398 -> 2027.00
11:06:24:409 -> 2129.00
11:06:24:419 -> 2002.00
11:06:24:429 -> 2093.00
11:06:24:440 -> 1783.00
11:06:24:450 -> 1752.00
11:06:24:460 -> 2217.00
11:06:24:471 -> 1777.00
11:06:24:481 -> 2254.00
11:06:24:491 -> 1813.00
11:06:24:502 -> 2042.00
11:06:24:512 -> 1920.00
11:06:24:522 -> 2260.00
11:06:24:533 -> 1730.00
11:06:24:543 -> 2152.00
11:06:24:553 -> 1873.00
11:06:24:563 -> 2241.00
11:06:24:574 -> 1831.00
11:06:24:584 -> 2134.00
11:06:24:594 -> 1979.00
11:06:24:605 -> 2224.00
11:06:24:615 -> 2012.00
11:06:24:625 -> 2086.00
11:06:24:636 -> 1958.00
11:06:24:646 -> 2082.00
11:06:24:657 -> 1944.00
11:06:24:667 -> 2062.00
11:06:24:679 -> 2116.00
11:06:24:688 -> 2049.00
11:06:24:698 -> 2002.00
11:06:24:708 -> 2077.00
11:06:24:718 -> 2015.00
11:06:24:738 -> 1935.00
11:06:24:739 -> 2081.00
11:06:24:750 -> 2044.00
11:06:24:760 -> 2207.00
11:06:24:770 -> 1875.00
11:06:24:780 -> 2128.00
11:06:24:791 -> 1879.00
11:06:24:801 -> 2116.00
11:06:24:811 -> 1967.00
11:06:24:821 -> 2232.00
11:06:24:832 -> 1994.00
11:06:24:842 -> 2163.00
11:06:24:852 -> 1924.00
11:06:24:863 -> 2258.00
11:06:24:874 -> 1857.00
11:06:24:884 -> 2076.00
11:06:24:894 -> 1949.00
11:06:24:904 -> 2070.00
11:06:24:914 -> 1937.00
11:06:24:925 -> 2138.00
11:06:24:935 -> 1890.00
11:06:24:945 -> 2329.00
11:06:24:956 -> 1724.00
11:06:24:966 -> 2122.00
11:06:24:978 -> 1970.00
11:06:24:988 -> 2100.00
11:06:24:998 -> 2078.00
11:06:25:008 -> 1921.00
11:06:25:018 -> 2010.00
11:06:25:028 -> 2016.00
11:06:25:039 -> 2183.00
11:06:25:049 -> 1956.00
11:06:25:059 -> 2122.00
11:06:25:070 -> 1995.00
11:06:25:081 -> 2051.00
11:06:25:090 -> 1956.00
11:06:25:101 -> 2164.00
11:06:25:111 -> 1736.00
11:06:25:121 -> 2276.00
11:06:25:131 -> 1926.00
11:06:25:142 -> 2207.00
11:06:25:152 -> 1845.00
11:06:25:163 -> 2298.00
11:06:25:173 -> 2010.00
11:06:25:183 -> 2200.00
11:06:25:195 -> 1926.00
11:06:25:204 -> 2109.00
11:06:25:214 -> 2052.00
11:06:25:270 -> 2121.00
11:06:25:271 -> 1849.00
11:06:25:271 -> 2179.00
11:06:25:271 -> 1921.00
11:06:25:271 -> 2123.00
11:06:25:276 -> 1873.00
11:06:25:286 -> 2077.00
11:06:25:297 -> 1996.00
11:06:25:307 -> 2153.00
11:06:25:317 -> 1994.00
11:06:25:328 -> 1940.00
11:06:25:338 -> 2073.00
11:06:25:348 -> 2010.00
11:06:25:359 -> 1947.00
11:06:25:369 -> 2039.00
11:06:25:379 -> 2006.00
11:06:25:389 -> 1977.00
11:06:25:400 -> 2134.00
11:06:25:410 -> 1935.00
11:06:25:420 -> 2101.00
11:06:25:431 -> 2036.00
11:06:25:441 -> 2039.00
11:06:25:452 -> 1935.00
11:06:25:462 -> 2174.00
11:06:25:472 -> 1913.00
11:06:25:482 -> 2089.00
11:06:25:493 -> 1950.00
11:06:25:503 -> 2176.00
11:06:25:513 -> 1948.00
11:06:25:524 -> 2123.00
11:06:25:534 -> 2035.00
11:06:25:544 -> 2023.00
11:06:25:554 -> 2005.00
11:06:25:565 -> 1944.00
11:06:25:576 -> 1857.00
11:06:25:586 -> 2021.00
11:06:25:596 -> 1855.00
11:06:25:606 -> 2081.00
11:06:25:617 -> 1991.00
11:06:25:628 -> 2109.00
11:06:25:637 -> 1903.00
11:06:25:648 -> 2119.00
11:06:25:658 -> 1972.00
11:06:25:668 -> 2109.00
11:06:25:679 -> 2077.00
11:06:25:689 -> 2031.00
11:06:25:699 -> 2180.00
11:06:25:709 -> 1822.00
11:06:25:720 -> 2019.00
11:06:25:730 -> 1939.00
11:06:25:741 -> 2029.00
11:06:25:753 -> 1920.00
11:06:25:761 -> 2174.00
11:06:25:785 -> 1975.00
11:06:25:786 -> 2122.00
11:06:25:792 -> 1941.00
11:06:25:802 -> 2354.00
11:06:25:813 -> 1687.00
11:06:25:823 -> 2266.00
11:06:25:833 -> 1721.00
11:06:25:843 -> 2251.00
11:06:25:854 -> 1923.00
11:06:25:864 -> 2151.00
11:06:25:875 -> 1964.00
11:06:25:885 -> 2109.00
11:06:25:895 -> 1844.00
11:06:25:911 -> 2124.00
11:06:25:916 -> 1828.00
11:06:25:926 -> 2117.00
11:06:25:937 -> 1938.00
11:06:25:947 -> 2092.00
11:06:25:957 -> 1949.00
11:06:25:968 -> 2059.00
11:06:25:978 -> 2004.00
11:06:25:989 -> 2033.00
11:06:25:999 -> 2074.00
11:06:26:009 -> 1893.00
11:06:26:020 -> 2069.00
11:06:26:030 -> 2054.00
11:06:26:041 -> 2074.00
11:06:26:051 -> 1765.00
11:06:26:061 -> 2141.00
11:06:26:072 -> 1851.00
11:06:26:082 -> 2175.00
11:06:26:092 -> 1874.00
11:06:26:102 -> 2141.00
11:06:26:113 -> 1943.00
11:06:26:123 -> 2114.00
11:06:26:133 -> 1836.00
11:06:26:144 -> 2120.00
11:06:26:154 -> 1925.00
11:06:26:164 -> 2145.00
11:06:26:174 -> 1864.00
11:06:26:188 -> 2154.00
11:06:26:208 -> 1783.00
11:06:26:217 -> 2197.00
11:06:26:218 -> 2082.00
11:06:26:229 -> 2002.00
11:06:26:239 -> 2081.00
11:06:26:249 -> 1987.00
11:06:26:262 -> 2055.00
11:06:26:270 -> 1913.00
11:06:26:280 -> 2089.00
11:06:26:311 -> 1877.00
11:06:26:311 -> 2111.00
11:06:26:311 -> 1919.00
11:06:26:322 -> 2138.00
11:06:26:332 -> 1945.00
11:06:26:342 -> 2196.00
11:06:26:353 -> 1887.00
11:06:26:363 -> 2167.00
11:06:26:375 -> 1896.00
11:06:26:383 -> 2127.00
11:06:26:394 -> 1890.00
11:06:26:404 -> 2192.00
11:06:26:414 -> 1932.00
11:06:26:424 -> 2170.00
11:06:26:435 -> 1824.00
11:06:26:445 -> 2139.00
11:06:26:455 -> 1885.00
11:06:26:466 -> 2125.00
11:06:26:476 -> 1943.00
11:06:26:486 -> 2025.00
11:06:26:499 -> 2003.00
11:06:26:507 -> 2076.00
11:06:26:517 -> 1972.00
11:06:26:528 -> 2071.00
11:06:26:538 -> 2058.00
11:06:26:548 -> 1968.00
11:06:26:559 -> 2052.00
11:06:26:569 -> 2003.00
11:06:26:582 -> 2111.00
11:06:26:590 -> 1940.00
11:06:26:600 -> 2084.00
11:06:26:610 -> 1920.00
11:06:26:621 -> 2136.00
11:06:26:631 -> 1902.00
11:06:26:641 -> 2185.00
11:06:26:652 -> 1957.00
11:06:26:662 -> 2195.00
11:06:26:672 -> 1911.00
11:06:26:683 -> 2174.00
11:06:26:693 -> 1827.00
11:06:26:704 -> 2170.00
11:06:26:714 -> 1860.00
11:06:26:725 -> 2169.00
11:06:26:735 -> 1831.00
11:06:26:745 -> 2136.00
11:06:26:756 -> 1891.00
11:06:26:766 -> 2010.00
11:06:26:776 -> 1922.00
11:06:26:787 -> 2075.00
11:06:26:797 -> 1993.00
11:06:26:807 -> 2067.00
11:06:26:832 -> 1953.00
11:06:26:833 -> 2055.00
11:06:26:838 -> 2058.00
11:06:26:848 -> 1994.00
11:06:26:859 -> 2054.00
11:06:26:869 -> 2010.00
11:06:26:879 -> 2097.00
11:06:26:889 -> 1925.00
11:06:26:900 -> 2106.00
11:06:26:910 -> 1914.00
11:06:26:920 -> 2101.00
11:06:26:931 -> 1911.00
11:06:26:941 -> 2180.00
11:06:26:951 -> 1932.00
11:06:26:962 -> 2169.00
11:06:26:972 -> 1884.00
11:06:26:982 -> 2177.00
11:06:26:996 -> 1876.00
11:06:27:003 -> 2166.00
11:06:27:013 -> 1926.00
11:06:27:024 -> 2188.00
11:06:27:034 -> 1950.00
11:06:27:073 -> 2151.00
11:06:27:074 -> 1820.00
11:06:27:074 -> 2177.00
11:06:27:075 -> 1872.00
11:06:27:085 -> 2139.00
11:06:27:096 -> 1875.00
11:06:27:106 -> 2066.00
11:06:27:116 -> 1930.00
11:06:27:127 -> 2081.00
11:06:27:137 -> 1985.00
11:06:27:147 -> 2040.00
11:06:27:159 -> 2046.00
11:06:27:168 -> 2017.00
11:06:27:178 -> 2018.00
11:06:27:189 -> 2009.00
11:06:27:199 -> 2078.00
11:06:27:210 -> 1926.00
11:06:27:220 -> 2121.00
11:06:27:230 -> 1918.00
11:06:27:240 -> 2081.00
11:06:27:251 -> 1957.00
11:06:27:261 -> 2172.00
11:06:27:272 -> 1946.00
11:06:27:282 -> 2166.00
11:06:27:296 -> 1899.00
11:06:27:302 -> 2153.00
11:06:27:313 -> 1876.00
11:06:27:323 -> 2114.00
11:06:27:349 -> 1883.00
11:06:27:350 -> 2152.00
11:06:27:354 -> 1977.00
11:06:27:364 -> 2170.00
11:06:27:375 -> 1806.00
11:06:27:385 -> 2116.00
11:06:27:395 -> 1905.00
11:06:27:406 -> 2067.00
11:06:27:416 -> 1948.00
11:06:27:426 -> 2058.00
11:06:27:437 -> 2032.00
11:06:27:447 -> 2061.00
11:06:27:458 -> 2066.00
11:06:27:468 -> 1993.00
11:06:27:478 -> 2070.00
11:06:27:490 -> 1971.00
11:06:27:499 -> 2113.00
11:06:27:509 -> 1944.00
11:06:27:520 -> 2028.00
11:06:27:530 -> 1929.00
11:06:27:540 -> 2119.00
11:06:27:550 -> 1901.00
11:06:27:561 -> 2107.00
11:06:27:571 -> 1937.00
11:06:27:581 -> 2168.00
11:06:27:592 -> 1947.00
11:06:27:602 -> 2153.00
11:06:27:612 -> 1888.00
11:06:27:622 -> 2185.00
11:06:27:633 -> 1874.00
11:06:27:643 -> 2161.00
11:06:27:654 -> 1917.00
11:06:27:664 -> 2074.00
11:06:27:674 -> 1948.00
11:06:27:684 -> 2172.00
11:06:27:695 -> 1852.00
11:06:27:705 -> 2130.00
11:06:27:716 -> 1871.00
11:06:27:726 -> 2135.00
11:06:27:736 -> 1772.00
11:06:27:751 -> 2095.00
11:06:27:757 -> 2003.00
11:06:27:767 -> 2200.00
11:06:27:778 -> 2076.00
11:06:27:789 -> 2078.00
11:06:27:799 -> 2020.00
11:06:27:809 -> 1902.00
11:06:27:819 -> 2151.00
11:06:27:829 -> 1965.00
11:06:27:839 -> 2009.00
11:06:27:864 -> 1968.00
11:06:27:865 -> 2041.00
11:06:27:871 -> 2005.00
11:06:27:881 -> 2126.00
11:06:27:891 -> 1940.00
11:06:27:901 -> 2266.00
11:06:27:912 -> 1948.00
11:06:27:922 -> 2143.00
11:06:27:932 -> 1887.00
11:06:27:943 -> 2161.00
11:06:27:974 -> 1874.00
11:06:27:974 -> 2120.00
11:06:27:974 -> 1878.00
11:06:27:984 -> 2185.00
11:06:27:994 -> 1895.00
11:06:28:005 -> 2059.00
11:06:28:015 -> 1923.00
11:06:28:026 -> 2217.00
11:06:28:036 -> 1983.00
11:06:28:046 -> 2098.00
11:06:28:056 -> 2059.00
11:06:28:066 -> 2003.00
11:06:28:077 -> 1953.00
11:06:28:087 -> 2032.00
11:06:28:097 -> 1970.00
11:06:28:107 -> 2174.00
11:06:28:118 -> 2028.00
11:06:28:128 -> 1847.00
11:06:28:138 -> 1960.00
11:06:28:148 -> 1989.00
11:06:28:159 -> 2131.00
11:06:28:169 -> 1949.00
11:06:28:180 -> 2086.00
11:06:28:190 -> 1936.00
11:06:28:200 -> 2121.00
11:06:28:210 -> 1842.00
11:06:28:222 -> 2064.00
11:06:28:231 -> 1923.00
11:06:28:241 -> 2108.00
11:06:28:252 -> 1858.00
11:06:28:262 -> 2168.00
11:06:28:272 -> 2027.00
11:06:28:283 -> 2054.00
11:06:28:293 -> 1837.00
11:06:28:303 -> 2089.00
11:06:28:313 -> 2014.00
11:06:28:324 -> 2171.00
11:06:28:338 -> 2177.00
11:06:28:344 -> 2142.00
11:06:28:355 -> 1746.00
11:06:28:381 -> 2214.00
11:06:28:382 -> 1927.00
11:06:28:385 -> 2071.00
11:06:28:396 -> 1888.00
11:06:28:406 -> 2153.00
11:06:28:416 -> 1966.00
11:06:28:427 -> 2049.00
11:06:28:437 -> 1884.00
11:06:28:447 -> 2188.00
11:06:28:462 -> 1939.00
11:06:28:468 -> 1966.00
11:06:28:479 -> 2124.00
11:06:28:489 -> 1928.00
11:06:28:499 -> 2223.00
11:06:28:509 -> 1835.00
11:06:28:519 -> 2140.00
11:06:28:530 -> 1991.00
11:06:28:541 -> 1987.00
11:06:28:551 -> 1946.00
11:06:28:561 -> 2133.00
11:06:28:571 -> 1974.00
11:06:28:581 -> 2170.00
11:06:28:591 -> 1952.00
11:06:28:602 -> 2170.00
11:06:28:612 -> 1882.00
11:06:28:622 -> 2158.00
11:06:28:633 -> 1784.00
11:06:28:643 -> 2221.00
11:06:28:653 -> 1805.00
11:06:28:664 -> 2134.00
11:06:28:674 -> 1924.00
11:06:28:684 -> 2098.00
11:06:28:695 -> 1739.00
11:06:28:705 -> 2207.00
11:06:28:715 -> 1862.00
11:06:28:726 -> 2130.00
11:06:28:736 -> 1957.00
11:06:28:746 -> 2055.00
11:06:28:757 -> 1899.00
11:06:28:767 -> 2052.00
11:06:28:777 -> 1833.00
11:06:28:787 -> 2047.00
11:06:28:798 -> 2093.00
11:06:28:808 -> 2059.00
11:06:28:818 -> 2078.00
11:06:28:829 -> 1972.00
11:06:28:839 -> 2268.00
11:06:28:850 -> 1846.00
11:06:28:860 -> 2116.00
11:06:28:874 -> 1988.00
11:06:28:880 -> 2124.00
11:06:28:897 -> 1893.00
11:06:28:901 -> 2111.00
11:06:28:911 -> 1902.00
11:06:28:921 -> 2045.00
11:06:28:932 -> 1949.00
11:06:28:942 -> 2210.00
11:06:28:953 -> 1978.00
11:06:28:963 -> 2198.00
11:06:28:973 -> 1989.00
11:06:28:984 -> 2163.00
11:06:28:994 -> 1893.00
11:06:29:004 -> 2199.00
11:06:29:015 -> 1818.00
11:06:29:025 -> 2114.00
11:06:29:036 -> 1853.00
11:06:29:047 -> 2087.00
11:06:29:085 -> 1985.00
11:06:29:086 -> 2029.00
11:06:29:086 -> 2002.00
11:06:29:088 -> 2013.00
11:06:29:098 -> 1978.00
11:06:29:109 -> 1987.00
11:06:29:119 -> 2062.00
11:06:29:131 -> 1991.00
11:06:29:140 -> 2045.00
11:06:29:150 -> 1917.00
11:06:29:160 -> 2143.00
11:06:29:171 -> 1882.00
11:06:29:181 -> 2137.00
11:06:29:191 -> 1913.00
11:06:29:202 -> 2183.00
11:06:29:212 -> 1936.00
11:06:29:223 -> 2145.00
11:06:29:233 -> 1840.00
11:06:29:243 -> 2204.00
11:06:29:253 -> 1865.00
11:06:29:264 -> 2152.00
11:06:29:275 -> 1911.00
11:06:29:285 -> 2147.00
11:06:29:295 -> 1857.00
11:06:29:306 -> 2103.00
11:06:29:316 -> 1935.00
11:06:29:326 -> 2039.00
11:06:29:337 -> 1987.00
11:06:29:347 -> 2036.00
11:06:29:358 -> 2066.00
11:06:29:368 -> 2092.00
11:06:29:378 -> 2051.00
11:06:29:389 -> 2008.00
11:06:29:417 -> 1924.00
11:06:29:418 -> 2012.00
11:06:29:419 -> 2136.00
11:06:29:430 -> 2009.00
11:06:29:440 -> 2082.00
11:06:29:450 -> 1955.00
11:06:29:460 -> 2136.00
11:06:29:471 -> 1930.00
11:06:29:482 -> 2153.00
11:06:29:492 -> 1921.00
11:06:29:503 -> 2170.00
11:06:29:513 -> 1873.00
11:06:29:523 -> 2179.00
11:06:29:534 -> 1857.00
11:06:29:544 -> 2132.00
11:06:29:554 -> 1962.00
11:06:29:565 -> 2061.00
11:06:29:578 -> 1882.00
11:06:29:586 -> 2064.00
11:06:29:596 -> 1934.00
11:06:29:606 -> 2118.00
11:06:29:616 -> 1939.00
11:06:29:627 -> 2091.00
11:06:29:637 -> 1984.00
11:06:29:647 -> 2024.00
11:06:29:658 -> 2020.00
11:06:29:668 -> 2047.00
11:06:29:679 -> 2032.00
11:06:29:689 -> 1979.00
11:06:29:699 -> 2111.00
11:06:29:712 -> 1953.00
11:06:29:720 -> 2058.00
11:06:29:730 -> 1902.00
11:06:29:740 -> 2110.00
11:06:29:751 -> 1902.00
11:06:29:761 -> 2118.00
11:06:29:771 -> 1938.00
11:06:29:782 -> 2171.00
11:06:29:792 -> 1907.00
11:06:29:802 -> 2189.00
11:06:29:813 -> 1837.00
11:06:29:828 -> 2177.00
11:06:29:834 -> 1868.00
11:06:29:844 -> 2140.00
11:06:29:854 -> 1991.00
11:06:29:864 -> 2176.00
11:06:29:875 -> 1857.00
11:06:29:885 -> 2144.00
11:06:29:896 -> 1895.00
11:06:29:906 -> 2073.00
11:06:29:966 -> 1904.00
11:06:29:967 -> 2039.00
11:06:29:967 -> 1944.00
11:06:29:967 -> 2047.00
11:06:29:967 -> 2055.00
11:06:29:968 -> 1977.00
11:06:29:978 -> 2099.00
11:06:29:989 -> 2008.00
11:06:29:999 -> 2088.00
11:06:30:009 -> 1975.00
11:06:30:020 -> 2100.00
11:06:30:030 -> 1942.00
11:06:30:040 -> 2060.00
11:06:30:051 -> 1901.00
11:06:30:061 -> 2136.00
11:06:30:071 -> 1882.00
11:06:30:082 -> 2175.00
11:06:30:092 -> 1921.00
11:06:30:102 -> 2145.00
11:06:30:113 -> 1862.00
11:06:30:123 -> 2167.00
11:06:30:133 -> 1832.00
11:06:30:144 -> 2117.00
11:06:30:154 -> 1926.00
11:06:30:164 -> 2148.00
11:06:30:175 -> 1808.00
11:06:30:185 -> 2172.00
11:06:30:195 -> 1900.00
11:06:30:206 -> 2122.00
11:06:30:216 -> 1915.00
11:06:30:226 -> 2127.00
11:06:30:237 -> 1995.00
11:06:30:247 -> 2028.00
11:06:30:257 -> 1972.00
11:06:30:268 -> 2038.00
11:06:30:278 -> 2045.00
11:06:30:288 -> 2002.00
11:06:30:299 -> 2082.00
11:06:30:309 -> 2016.00
11:06:30:319 -> 1974.00
11:06:30:329 -> 1923.00
11:06:30:340 -> 2127.00
11:06:30:355 -> 1923.00
11:06:30:360 -> 2160.00
11:06:30:371 -> 2083.00
11:06:30:381 -> 1994.00
11:06:30:391 -> 1976.00
11:06:30:402 -> 2245.00
11:06:30:412 -> 1819.00
11:06:30:422 -> 2135.00
11:06:30:433 -> 1961.00
11:06:30:443 -> 2251.00
11:06:30:453 -> 2013.00
11:06:30:464 -> 1948.00
11:06:30:487 -> 2029.00
11:06:30:488 -> 2032.00
11:06:30:498 -> 2041.00
11:06:30:505 -> 2069.00
11:06:30:515 -> 1981.00
11:06:30:526 -> 2024.00
11:06:30:536 -> 1718.00
11:06:30:546 -> 2190.00
11:06:30:556 -> 1889.00
11:06:30:567 -> 1934.00
11:06:30:577 -> 1947.00
11:06:30:587 -> 2193.00
11:06:30:597 -> 1993.00
11:06:30:608 -> 1985.00
11:06:30:618 -> 2119.00
11:06:30:629 -> 2045.00
11:06:30:639 -> 2150.00
11:06:30:649 -> 1814.00
11:06:30:659 -> 2005.00
11:06:30:670 -> 2058.00
11:06:30:681 -> 2015.00
11:06:30:690 -> 1776.00
11:06:30:702 -> 2218.00
11:06:30:711 -> 1869.00
11:06:30:722 -> 2297.00
11:06:30:753 -> 1847.00
11:06:30:754 -> 2205.00
11:06:30:754 -> 1971.00
11:06:30:763 -> 2122.00
11:06:30:773 -> 1754.00
11:06:30:783 -> 1949.00
11:06:30:794 -> 1996.00
11:06:30:804 -> 2197.00
11:06:30:814 -> 1848.00
11:06:30:825 -> 2163.00
11:06:30:835 -> 1627.00
11:06:30:845 -> 2188.00
11:06:30:856 -> 1902.00
11:06:30:866 -> 2080.00
11:06:30:876 -> 1819.00
11:06:30:887 -> 1987.00
11:06:30:897 -> 1828.00
11:06:30:907 -> 2143.00
11:06:30:917 -> 1990.00
11:06:30:928 -> 2061.00
11:06:30:938 -> 2003.00
11:06:30:949 -> 2060.00
11:06:30:959 -> 2084.00
11:06:30:969 -> 2026.00
11:06:30:980 -> 2088.00
11:06:31:004 -> 1950.00
11:06:31:006 -> 1876.00
11:06:31:010 -> 1968.00
11:06:31:020 -> 2178.00
11:06:31:031 -> 1921.00
11:06:31:041 -> 2085.00
11:06:31:051 -> 1851.00
11:06:31:062 -> 2230.00
11:06:31:072 -> 1851.00
11:06:31:083 -> 2129.00
11:06:31:093 -> 1873.00
11:06:31:103 -> 2052.00
11:06:31:114 -> 1925.00
11:06:31:124 -> 2209.00
11:06:31:135 -> 2017.00
11:06:31:145 -> 2173.00
11:06:31:155 -> 1845.00
11:06:31:165 -> 2036.00
11:06:31:176 -> 1846.00
11:06:31:186 -> 2086.00
11:06:31:200 -> 2056.00
11:06:31:207 -> 2028.00
11:06:31:217 -> 1754.00
11:06:31:227 -> 2132.00
11:06:31:237 -> 2058.00
11:06:31:248 -> 2062.00
11:06:31:258 -> 2072.00
11:06:31:268 -> 2093.00
11:06:31:279 -> 1993.00
11:06:31:289 -> 1948.00
11:06:31:299 -> 2029.00
11:06:31:310 -> 2013.00
11:06:31:320 -> 2055.00
11:06:31:330 -> 1970.00
11:06:31:341 -> 2099.00
11:06:31:352 -> 1922.00
11:06:31:361 -> 2137.00
11:06:31:372 -> 1869.00
11:06:31:382 -> 2199.00
11:06:31:392 -> 1995.00
11:06:31:403 -> 2155.00
11:06:31:413 -> 1934.00
11:06:31:423 -> 2147.00
11:06:31:434 -> 1788.00
11:06:31:444 -> 2127.00
11:06:31:455 -> 1969.00
11:06:31:487 -> 2150.00
11:06:31:487 -> 1840.00
11:06:31:487 -> 2121.00
11:06:31:496 -> 1891.00
11:06:31:525 -> 2156.00
11:06:31:527 -> 1931.00
11:06:31:528 -> 2096.00
11:06:31:537 -> 1932.00
11:06:31:547 -> 2076.00
11:06:31:558 -> 2026.00
11:06:31:568 -> 2045.00
11:06:31:579 -> 2054.00
11:06:31:594 -> 1931.00
11:06:31:599 -> 2104.00
11:06:31:610 -> 1997.00
11:06:31:620 -> 2078.00
11:06:31:630 -> 1944.00
11:06:31:641 -> 2077.00
11:06:31:651 -> 1925.00
11:06:31:661 -> 2117.00
11:06:31:672 -> 1930.00
11:06:31:682 -> 2247.00
11:06:31:692 -> 1897.00
11:06:31:703 -> 2200.00
11:06:31:713 -> 1778.00
11:06:31:724 -> 2150.00
11:06:31:740 -> 1862.00
11:06:31:744 -> 2139.00
11:06:31:754 -> 2040.00
11:06:31:765 -> 2136.00
11:06:31:775 -> 1791.00
11:06:31:786 -> 2153.00
11:06:31:796 -> 1921.00
11:06:31:807 -> 2115.00
11:06:31:817 -> 1964.00
11:06:31:827 -> 2026.00
11:06:31:838 -> 2031.00
11:06:31:848 -> 2077.00
11:06:31:858 -> 1975.00
11:06:31:868 -> 2025.00
11:06:31:879 -> 2012.00
11:06:31:889 -> 1965.00
11:06:31:899 -> 2099.00
11:06:31:910 -> 1941.00
11:06:31:920 -> 2093.00
11:06:31:930 -> 1997.00
11:06:31:941 -> 2077.00
11:06:31:951 -> 1946.00
11:06:31:961 -> 2160.00
11:06:31:972 -> 1898.00
11:06:31:982 -> 2167.00
11:06:31:995 -> 1909.00
11:06:32:003 -> 2187.00
11:06:32:014 -> 1901.00
11:06:32:023 -> 2171.00
11:06:32:050 -> 1897.00
11:06:32:051 -> 2133.00
11:06:32:054 -> 1880.00
11:06:32:065 -> 2139.00
11:06:32:075 -> 1922.00
11:06:32:085 -> 2096.00
11:06:32:096 -> 1866.00
11:06:32:106 -> 2152.00
11:06:32:116 -> 1911.00
11:06:32:131 -> 2059.00
11:06:32:137 -> 1908.00
11:06:32:147 -> 2052.00
11:06:32:158 -> 2007.00
11:06:32:168 -> 2044.00
11:06:32:178 -> 2047.00
11:06:32:189 -> 2011.00
11:06:32:199 -> 2036.00
11:06:32:209 -> 1973.00
11:06:32:220 -> 2539.00
11:06:32:230 -> 1945.00
11:06:32:240 -> 2133.00
11:06:32:251 -> 1914.00
11:06:32:261 -> 2122.00
11:06:32:271 -> 1924.00
11:06:32:282 -> 2177.00
11:06:32:292 -> 1918.00
11:06:32:302 -> 2149.00
11:06:32:313 -> 1889.00
11:06:32:323 -> 2173.00
11:06:32:334 -> 1903.00
11:06:32:344 -> 2154.00
11:06:32:354 -> 1901.00
11:06:32:365 -> 2164.00
11:06:32:375 -> 1936.00
11:06:32:385 -> 2149.00
11:06:32:395 -> 1816.00
11:06:32:406 -> 2120.00
11:06:32:416 -> 1902.00
11:06:32:426 -> 2120.00
11:06:32:437 -> 1927.00
11:06:32:447 -> 2067.00
11:06:32:457 -> 1980.00
11:06:32:478 -> 2007.00
11:06:32:468 -> 2071.00
11:06:32:488 -> 2023.00
11:06:32:499 -> 2070.00
11:06:32:537 -> 2012.00
11:06:32:539 -> 2057.00
11:06:32:539 -> 1942.00
11:06:32:540 -> 2111.00
11:06:32:567 -> 1882.00
11:06:32:568 -> 2108.00
11:06:32:571 -> 1929.00
11:06:32:581 -> 2107.00
11:06:32:591 -> 1892.00
11:06:32:602 -> 2169.00
11:06:32:622 -> 2146.00
11:06:32:612 -> 1912.00
11:06:32:633 -> 1887.00
11:06:32:647 -> 2184.00
11:06:32:654 -> 1867.00
11:06:32:664 -> 2141.00
11:06:32:674 -> 1856.00
11:06:32:684 -> 2140.00
11:06:32:695 -> 1995.00
11:06:32:705 -> 2177.00
11:06:32:715 -> 1849.00
11:06:32:726 -> 2150.00
11:06:32:736 -> 1887.00
11:06:32:746 -> 2069.00
11:06:32:757 -> 1928.00
11:06:32:767 -> 2082.00
11:06:32:777 -> 2005.00
11:06:32:788 -> 2047.00
11:06:32:798 -> 2048.00
11:06:32:808 -> 2076.00
11:06:32:819 -> 2053.00
11:06:32:829 -> 1982.00
11:06:32:839 -> 2095.00
11:06:32:850 -> 1917.00
11:06:32:861 -> 2066.00
11:06:32:870 -> 1927.00
11:06:32:881 -> 2081.00
11:06:32:891 -> 1912.00
11:06:32:901 -> 2111.00
11:06:32:912 -> 1970.00
11:06:32:922 -> 2151.00
11:06:32:932 -> 1992.00
11:06:32:943 -> 2107.00
11:06:32:953 -> 1905.00
11:06:32:963 -> 2215.00
11:06:32:974 -> 1867.00
11:06:32:985 -> 2021.00
11:06:32:994 -> 1950.00
11:06:33:004 -> 2145.00
11:06:33:015 -> 1972.00
11:06:33:025 -> 2347.00
11:06:33:036 -> 1911.00
11:06:33:046 -> 2070.00
11:06:33:056 -> 1885.00
11:06:33:083 -> 2136.00
11:06:33:084 -> 1996.00
11:06:33:087 -> 2123.00
11:06:33:099 -> 1990.00
11:06:33:108 -> 2116.00
11:06:33:118 -> 2045.00
11:06:33:129 -> 2004.00
11:06:33:139 -> 2170.00
11:06:33:149 -> 1992.00
11:06:33:160 -> 2167.00
11:06:33:170 -> 2036.00
11:06:33:181 -> 2203.00
11:06:33:191 -> 2089.00
11:06:33:201 -> 1990.00
11:06:33:212 -> 1993.00
11:06:33:222 -> 2177.00
11:06:33:232 -> 1955.00
11:06:33:242 -> 2173.00
11:06:33:253 -> 2157.00
11:06:33:263 -> 2262.00
11:06:33:274 -> 1822.00
11:06:33:284 -> 2232.00
11:06:33:294 -> 1758.00
11:06:33:304 -> 2026.00
11:06:33:336 -> 1933.00
11:06:33:338 -> 2166.00
11:06:33:338 -> 1785.00
11:06:33:346 -> 2239.00
11:06:33:356 -> 1840.00
11:06:33:366 -> 2198.00
11:06:33:377 -> 1920.00
11:06:33:387 -> 2086.00
11:06:33:397 -> 2025.00
11:06:33:407 -> 1928.00
11:06:33:418 -> 2043.00
11:06:33:428 -> 2095.00
11:06:33:438 -> 1848.00
11:06:33:449 -> 2000.00
11:06:33:459 -> 2198.00
11:06:33:470 -> 2109.00
11:06:33:480 -> 2123.00
11:06:33:491 -> 1894.00
11:06:33:501 -> 2277.00
11:06:33:512 -> 1997.00
11:06:33:524 -> 2102.00
11:06:33:532 -> 1907.00
11:06:33:542 -> 2114.00
11:06:33:552 -> 1997.00
11:06:33:563 -> 2298.00
11:06:33:573 -> 1983.00
11:06:33:600 -> 2190.00
11:06:33:601 -> 1874.00
11:06:33:604 -> 2144.00
11:06:33:615 -> 2067.00
11:06:33:625 -> 2090.00
11:06:33:635 -> 1956.00
11:06:33:646 -> 2375.00
11:06:33:656 -> 1820.00
11:06:33:666 -> 2149.00
11:06:33:677 -> 1885.00
11:06:33:687 -> 2085.00
11:06:33:697 -> 1989.00
11:06:33:708 -> 1966.00
11:06:33:718 -> 1906.00
11:06:33:728 -> 2126.00
11:06:33:739 -> 2062.00
11:06:33:749 -> 2044.00
11:06:33:759 -> 2057.00
11:06:33:770 -> 1924.00
11:06:33:780 -> 2025.00
11:06:33:790 -> 1944.00
11:06:33:801 -> 2073.00
11:06:33:811 -> 1831.00
11:06:33:821 -> 2089.00
11:06:33:842 -> 2174.00
11:06:33:831 -> 1930.00
11:06:33:852 -> 1961.00
11:06:33:863 -> 2186.00
11:06:33:873 -> 1891.00
11:06:33:883 -> 2223.00
11:06:33:893 -> 1853.00
11:06:33:904 -> 2160.00
11:06:33:914 -> 1896.00
11:06:33:924 -> 2175.00
11:06:33:935 -> 1866.00
11:06:33:945 -> 2159.00
11:06:33:955 -> 1874.00
11:06:33:968 -> 2113.00
11:06:33:976 -> 1937.00
11:06:33:986 -> 2087.00
11:06:33:996 -> 1907.00
11:06:34:007 -> 2102.00
11:06:34:017 -> 1945.00
11:06:34:027 -> 2052.00
11:06:34:038 -> 1992.00
11:06:34:048 -> 2087.00
11:06:34:058 -> 1996.00
11:06:34:070 -> 2048.00
11:06:34:079 -> 2022.00
11:06:34:089 -> 1985.00
11:06:34:100 -> 2136.00
11:06:34:120 -> 1858.00
11:06:34:121 -> 2063.00
11:06:34:131 -> 2009.00
11:06:34:141 -> 2114.00
11:06:34:151 -> 1888.00
11:06:34:162 -> 2169.00
11:06:34:172 -> 1949.00
11:06:34:182 -> 2151.00
11:06:34:192 -> 1870.00
11:06:34:203 -> 2149.00
11:06:34:218 -> 1843.00
11:06:34:223 -> 2191.00
11:06:34:234 -> 1893.00
11:06:34:244 -> 2152.00
11:06:34:254 -> 1905.00
11:06:34:264 -> 2141.00
11:06:34:275 -> 1867.00
11:06:34:285 -> 2194.00
11:06:34:295 -> 1803.00
11:06:34:306 -> 2137.00
11:06:34:316 -> 1905.00
11:06:34:326 -> 2082.00
11:06:34:337 -> 1965.00
11:06:34:347 -> 2095.00
11:06:34:357 -> 1976.00
11:06:34:368 -> 2041.00
11:06:34:378 -> 2034.00
11:06:34:391 -> 2025.00
11:06:34:399 -> 2033.00
11:06:34:409 -> 1993.00
11:06:34:419 -> 2072.00
11:06:34:430 -> 1934.00
11:06:34:440 -> 2008.00
11:06:34:450 -> 1940.00
11:06:34:461 -> 2101.00
11:06:34:471 -> 1923.00
11:06:34:481 -> 2115.00
11:06:34:519 -> 1935.00
11:06:34:519 -> 2237.00
11:06:34:519 -> 1900.00
11:06:34:522 -> 2188.00
11:06:34:533 -> 1892.00
11:06:34:543 -> 2181.00
11:06:34:553 -> 1930.00
11:06:34:564 -> 2146.00
11:06:34:574 -> 1879.00
11:06:34:584 -> 2162.00
11:06:34:594 -> 1867.00
11:06:34:605 -> 2183.00
11:06:34:615 -> 1957.00
11:06:34:640 -> 2135.00
11:06:34:642 -> 1823.00
11:06:34:646 -> 2131.00
11:06:34:656 -> 1879.00
11:06:34:666 -> 2093.00
11:06:34:677 -> 1916.00
11:06:34:687 -> 2053.00
11:06:34:697 -> 1946.00
11:06:34:708 -> 2053.00
11:06:34:718 -> 1975.00
11:06:34:728 -> 2054.00
11:06:34:743 -> 2045.00
11:06:34:749 -> 2028.00
11:06:34:759 -> 2026.00
11:06:34:769 -> 1989.00
11:06:34:779 -> 2093.00
11:06:34:790 -> 1970.00
11:06:34:800 -> 2080.00
11:06:34:810 -> 1908.00
11:06:34:821 -> 2093.00
11:06:34:831 -> 1981.00
11:06:34:842 -> 2117.00
11:06:34:852 -> 1949.00
11:06:34:863 -> 2169.00
11:06:34:872 -> 1920.00
11:06:34:883 -> 2225.00
11:06:34:893 -> 1889.00
11:06:34:903 -> 2155.00
11:06:34:914 -> 1888.00
11:06:34:924 -> 2150.00
11:06:34:938 -> 1903.00
11:06:34:945 -> 2167.00
11:06:34:955 -> 2004.00
11:06:34:965 -> 2135.00
11:06:34:976 -> 1788.00
11:06:34:986 -> 2138.00
11:06:34:996 -> 1917.00
11:06:35:007 -> 2117.00
11:06:35:017 -> 1936.00
11:06:35:027 -> 2079.00
11:06:35:038 -> 1978.00
11:06:35:048 -> 2089.00
11:06:35:058 -> 2007.00
11:06:35:069 -> 2055.00
11:06:35:079 -> 2028.00
11:06:35:090 -> 1992.00
11:06:35:100 -> 2082.00
11:06:35:110 -> 1938.00
11:06:35:120 -> 2071.00
11:06:35:131 -> 1938.00
11:06:35:157 -> 2150.00
11:06:35:157 -> 1912.00
11:06:35:162 -> 2165.00
11:06:35:172 -> 1849.00
11:06:35:182 -> 2160.00
11:06:35:193 -> 1944.00
11:06:35:203 -> 2159.00
11:06:35:213 -> 1920.00
11:06:35:224 -> 2153.00
11:06:35:234 -> 1918.00
11:06:35:244 -> 2176.00
11:06:35:256 -> 1903.00
11:06:35:265 -> 2166.00
11:06:35:276 -> 1834.00
11:06:35:286 -> 2080.00
11:06:35:296 -> 1927.00
11:06:35:307 -> 2090.00
11:06:35:317 -> 1942.00
11:06:35:328 -> 2086.00
11:06:35:338 -> 1961.00
11:06:35:348 -> 2030.00
11:06:35:358 -> 2040.00
11:06:35:368 -> 2030.00
11:06:35:379 -> 2044.00
11:06:35:389 -> 2037.00
11:06:35:410 -> 2000.00
11:06:35:399 -> 2081.00
11:06:35:420 -> 2073.00
11:06:35:454 -> 1993.00
11:06:35:454 -> 2124.00
11:06:35:454 -> 1984.00
11:06:35:461 -> 2126.00
11:06:35:472 -> 1834.00
11:06:35:482 -> 2179.00
11:06:35:493 -> 1903.00
11:06:35:506 -> 2159.00
11:06:35:513 -> 1864.00
11:06:35:523 -> 2148.00
11:06:35:534 -> 1880.00
11:06:35:544 -> 2100.00
11:06:35:554 -> 1976.00
11:06:35:565 -> 2163.00
11:06:35:575 -> 1981.00
11:06:35:585 -> 2081.00
11:06:35:596 -> 1948.00
11:06:35:606 -> 2188.00
11:06:35:616 -> 1897.00
11:06:35:626 -> 2116.00
11:06:35:637 -> 1924.00
11:06:35:647 -> 2024.00
11:06:35:678 -> 1950.00
11:06:35:680 -> 2212.00
11:06:35:680 -> 1976.00
11:06:35:688 -> 1825.00
11:06:35:699 -> 2059.00
11:06:35:709 -> 2075.00
11:06:35:720 -> 2066.00
11:06:35:730 -> 1923.00
11:06:35:740 -> 1912.00
11:06:35:750 -> 1973.00
11:06:35:760 -> 1832.00
11:06:35:773 -> 1966.00
11:06:35:781 -> 2216.00
11:06:35:792 -> 1840.00
11:06:35:802 -> 2219.00
11:06:35:812 -> 1913.00
11:06:35:822 -> 2242.00
11:06:35:833 -> 1777.00
11:06:35:843 -> 2037.00
11:06:35:853 -> 1816.00
11:06:35:864 -> 2178.00
11:06:35:874 -> 1775.00
11:06:35:884 -> 2110.00
11:06:35:894 -> 1979.00
11:06:35:905 -> 2205.00
11:06:35:915 -> 1906.00
11:06:35:926 -> 2154.00
11:06:35:936 -> 2056.00
11:06:35:947 -> 2142.00
11:06:35:956 -> 1915.00
11:06:35:967 -> 1996.00
11:06:35:977 -> 1866.00
11:06:35:988 -> 2050.00
11:06:35:998 -> 1964.00
11:06:36:008 -> 1864.00
11:06:36:019 -> 2067.00
11:06:36:029 -> 2056.00
11:06:36:039 -> 2068.00
11:06:36:050 -> 2062.011:06:36:070 -> 2056.00
0
11:06:36:060 -> 2201.00
11:06:36:081 -> 1896.00
11:06:36:091 -> 2008.00
11:06:36:104 -> 2174.00
11:06:36:111 -> 1790.00
11:06:36:122 -> 2264.00
11:06:36:132 -> 1953.00
11:06:36:142 -> 2005.00
11:06:36:152 -> 2001.00
11:06:36:163 -> 2129.00
11:06:36:173 -> 1815.00
11:06:36:199 -> 2179.00
11:06:36:199 -> 1969.00
11:06:36:204 -> 2096.00
11:06:36:215 -> 1934.00
11:06:36:225 -> 2110.00
11:06:36:237 -> 2001.00
11:06:36:246 -> 2023.00
11:06:36:256 -> 2026.00
11:06:36:266 -> 2084.00
11:06:36:277 -> 2010.00
11:06:36:287 -> 1976.00
11:06:36:297 -> 2005.00
11:06:36:307 -> 2043.00
11:06:36:318 -> 2034.00
11:06:36:328 -> 2103.00
11:06:36:338 -> 2003.00
11:06:36:349 -> 2100.00
11:06:36:359 -> 2023.00
11:06:36:369 -> 1882.00
11:06:36:379 -> 2077.00
11:06:36:392 -> 2001.00
11:06:36:400 -> 2087.00
11:06:36:410 -> 2021.00
11:06:36:421 -> 1996.00
11:06:36:431 -> 2052.00
11:06:36:463 -> 1993.00
11:06:36:464 -> 1870.00
11:06:36:464 -> 2209.00
11:06:36:474 -> 1901.00
11:06:36:484 -> 2066.00
11:06:36:494 -> 1963.00
11:06:36:504 -> 2050.00
11:06:36:515 -> 1902.00
11:06:36:525 -> 2271.00
11:06:36:535 -> 1840.00
11:06:36:546 -> 2166.00
11:06:36:556 -> 1846.00
11:06:36:566 -> 2134.00
11:06:36:576 -> 1909.00
11:06:36:588 -> 2004.00
11:06:36:597 -> 1963.00
11:06:36:607 -> 2080.00
11:06:36:618 -> 1924.00
11:06:36:629 -> 2015.00
11:06:36:638 -> 2014.00
11:06:36:649 -> 1990.00
11:06:36:659 -> 2035.00
11:06:36:669 -> 1850.00
11:06:36:680 -> 2127.00
11:06:36:690 -> 1967.00
11:06:36:716 -> 2059.00
11:06:36:718 -> 1917.00
11:06:36:721 -> 2131.00
11:06:36:731 -> 1864.00
11:06:36:742 -> 2151.00
11:06:36:752 -> 1986.00
11:06:36:762 -> 2125.00
11:06:36:773 -> 1900.00
11:06:36:783 -> 2140.00
11:06:36:793 -> 1913.00
11:06:36:804 -> 2138.00
11:06:36:814 -> 1866.00
11:06:36:824 -> 2124.00
11:06:36:835 -> 1892.00
11:06:36:846 -> 2180.00
11:06:36:857 -> 1841.00
11:06:36:867 -> 2079.00
11:06:36:877 -> 1969.00
11:06:36:888 -> 2096.00
11:06:36:898 -> 1992.00
11:06:36:911 -> 2069.00
11:06:36:919 -> 2027.00
11:06:36:929 -> 2010.00
11:06:36:939 -> 2037.00
11:06:36:950 -> 1965.00
11:06:36:960 -> 2051.00
11:06:36:970 -> 1960.00
11:06:36:981 -> 2084.00
11:06:36:991 -> 1945.00
11:06:37:001 -> 2129.00
11:06:37:012 -> 1963.00
11:06:37:023 -> 2137.00
11:06:37:033 -> 1908.00
11:06:37:043 -> 2176.00
11:06:37:059 -> 1907.00
11:06:37:064 -> 2169.00
11:06:37:074 -> 1918.00
11:06:37:084 -> 2148.00
11:06:37:094 -> 1898.00
11:06:37:105 -> 2161.00
11:06:37:115 -> 2016.00
11:06:37:125 -> 2167.00
11:06:37:136 -> 1849.00
11:06:37:146 -> 2169.00
11:06:37:157 -> 1911.00
11:06:37:167 -> 2076.00
11:06:37:178 -> 1929.00
11:06:37:187 -> 2081.00
11:06:37:198 -> 1990.00
11:06:37:208 -> 2084.00
11:06:37:237 -> 2013.00
11:06:37:238 -> 2014.00
11:06:37:239 -> 1994.00
11:06:37:250 -> 1997.00
11:06:37:260 -> 2052.00
11:06:37:270 -> 1976.00
11:06:37:280 -> 2052.00
11:06:37:291 -> 1967.00
11:06:37:301 -> 2103.00
11:06:37:312 -> 1925.00
11:06:37:322 -> 2118.00
11:06:37:332 -> 1940.00
11:06:37:373 -> 2133.00
11:06:37:374 -> 1912.00
11:06:37:374 -> 2142.00
11:06:37:374 -> 1906.00
11:06:37:384 -> 2142.00
11:06:37:394 -> 1904.00
11:06:37:404 -> 2130.00
11:06:37:414 -> 1914.00
11:06:37:424 -> 2178.00
11:06:37:435 -> 1960.00
11:06:37:447 -> 2133.00
11:06:37:455 -> 1866.00
11:06:37:466 -> 2143.00
11:06:37:476 -> 1868.00
11:06:37:486 -> 2121.00
11:06:37:497 -> 1924.00
11:06:37:507 -> 2091.00
11:06:37:518 -> 1971.00
11:06:37:528 -> 2099.00
11:06:37:538 -> 2002.00
11:06:37:548 -> 2000.00
11:06:37:559 -> 2055.00
11:06:37:569 -> 2025.00
11:06:37:579 -> 2063.00
11:06:37:590 -> 1996.00
11:06:37:600 -> 2083.00
11:06:37:610 -> 1937.00
11:06:37:621 -> 2082.00
11:06:37:631 -> 1960.00
11:06:37:641 -> 2125.00
11:06:37:652 -> 1869.00
11:06:37:662 -> 2138.00
11:06:37:672 -> 1933.00
11:06:37:683 -> 2163.00
11:06:37:693 -> 1888.00
11:06:37:703 -> 2173.00
11:06:37:714 -> 1892.00
11:06:37:724 -> 2151.00
11:06:37:735 -> 1863.00
11:06:37:765 -> 2127.00
11:06:37:766 -> 2032.00
11:06:37:766 -> 2157.00
11:06:37:776 -> 1833.00
11:06:37:787 -> 2135.00
11:06:37:797 -> 1896.00
11:06:37:807 -> 2096.00
11:06:37:817 -> 1933.00
11:06:37:828 -> 2066.00
11:06:37:838 -> 1978.00
11:06:37:848 -> 2075.00
11:06:37:859 -> 2035.00
11:06:37:869 -> 1983.00
11:06:37:880 -> 2054.00
11:06:37:890 -> 1950.00
11:06:37:900 -> 2097.00
11:06:37:911 -> 1946.00
11:06:37:921 -> 2122.00
11:06:37:931 -> 1906.00
11:06:37:941 -> 2154.00
11:06:37:952 -> 1901.00
11:06:37:962 -> 2143.00
11:06:37:972 -> 1894.00
11:06:37:983 -> 2193.00
11:06:37:993 -> 1870.00
11:06:38:003 -> 2182.00
11:06:38:014 -> 1894.00
11:06:38:024 -> 2159.00
11:06:38:034 -> 1895.00
11:06:38:044 -> 2175.00
11:06:38:055 -> 1865.00
11:06:38:065 -> 2165.00
11:06:38:075 -> 1921.00
11:06:38:086 -> 2144.00
11:06:38:096 -> 1807.00
11:06:38:106 -> 2104.00
11:06:38:117 -> 1880.00
11:06:38:127 -> 2107.00
11:06:38:138 -> 1897.00
11:06:38:148 -> 1994.00
11:06:38:161 -> 2176.00
11:06:38:168 -> 1900.00
11:06:38:179 -> 2068.00
11:06:38:189 -> 1941.00
11:06:38:199 -> 2169.00
11:06:38:210 -> 1880.00
11:06:38:220 -> 2058.00
11:06:38:230 -> 1947.00
11:06:38:241 -> 2171.00
11:06:38:251 -> 1649.00
11:06:38:261 -> 2159.00
11:06:38:288 -> 1918.00
11:06:38:288 -> 2047.00
11:06:38:293 -> 2031.00
11:06:38:327 -> 2165.00
11:06:38:328 -> 1922.00
11:06:38:328 -> 1999.00
11:06:38:334 -> 1988.00
11:06:38:344 -> 2118.00
11:06:38:354 -> 1809.00
11:06:38:365 -> 2091.00
11:06:38:375 -> 1866.00
11:06:38:385 -> 1998.00
11:06:38:396 -> 1648.00
11:06:38:406 -> 2283.00
11:06:38:416 -> 1864.00
11:06:38:427 -> 2022.00
11:06:38:437 -> 2015.00
11:06:38:447 -> 2257.00
11:06:38:458 -> 1981.00
11:06:38:469 -> 2076.00
11:06:38:479 -> 2048.00
11:06:38:489 -> 2051.00
11:06:38:499 -> 1951.00
11:06:38:509 -> 2018.00
11:06:38:523 -> 2065.00
11:06:38:530 -> 1978.00
11:06:38:541 -> 2209.00
11:06:38:551 -> 1982.00
11:06:38:561 -> 2147.00
11:06:38:572 -> 1910.00
11:06:38:582 -> 2017.00
11:06:38:592 -> 1844.00
11:06:38:603 -> 2185.00
11:06:38:613 -> 1748.00
11:06:38:623 -> 2273.00
11:06:38:634 -> 1877.00
11:06:38:644 -> 2112.00
11:06:38:655 -> 1828.00
11:06:38:665 -> 2213.00
11:06:38:675 -> 1778.00
11:06:38:685 -> 1987.00
11:06:38:696 -> 1850.00
11:06:38:706 -> 2230.00
11:06:38:716 -> 1807.00
11:06:38:727 -> 2009.00
11:06:38:737 -> 1901.00
11:06:38:747 -> 2152.00
11:06:38:758 -> 1841.00
11:06:38:768 -> 2124.00
11:06:38:778 -> 2037.00
11:06:38:805 -> 1979.00
11:06:38:806 -> 1958.00
11:06:38:809 -> 2105.00
11:06:38:820 -> 2162.00
11:06:38:830 -> 2036.00
11:06:38:840 -> 2282.00
11:06:38:851 -> 1828.00
11:06:38:861 -> 2327.00
11:06:38:871 -> 1961.00
11:06:38:882 -> 2174.00
11:06:38:892 -> 2053.00
11:06:38:902 -> 2205.00
11:06:38:913 -> 1970.00
11:06:38:923 -> 2335.00
11:06:38:933 -> 1736.00
11:06:38:944 -> 2234.00
11:06:38:954 -> 1814.00
11:06:38:964 -> 2225.00
11:06:38:974 -> 1769.00
11:06:38:985 -> 2226.00
11:06:38:995 -> 1974.00
11:06:39:005 -> 1967.00
11:06:39:016 -> 1802.00
11:06:39:026 -> 2183.00
11:06:39:036 -> 1940.00
11:06:39:047 -> 2114.00
11:06:39:057 -> 1904.00
11:06:39:068 -> 2149.00
11:06:39:078 -> 1839.00
11:06:39:088 -> 2125.00
11:06:39:098 -> 2147.00
11:06:39:109 -> 2042.00
11:06:39:119 -> 2029.00
11:06:39:129 -> 1922.00
11:06:39:140 -> 1994.00
11:06:39:150 -> 1983.00
11:06:39:160 -> 2471.00
11:06:39:171 -> 2000.00
11:06:39:181 -> 2081.00
11:06:39:191 -> 1957.00
11:06:39:202 -> 2167.00
11:06:39:212 -> 1975.00
11:06:39:222 -> 2133.00
11:06:39:233 -> 1901.00
11:06:39:243 -> 2168.00
11:06:39:253 -> 1876.00
11:06:39:264 -> 2171.00
11:06:39:274 -> 1934.00
11:06:39:284 -> 2142.00
11:06:39:294 -> 1865.00
11:06:39:320 -> 2142.00
11:06:39:321 -> 1917.00
11:06:39:326 -> 2138.00
11:06:39:336 -> 1823.00
11:06:39:346 -> 2139.00
11:06:39:356 -> 1937.00
11:06:39:367 -> 2077.00
11:06:39:401 -> 1913.00
11:06:39:401 -> 2055.00
11:06:39:401 -> 1868.00
11:06:39:408 -> 2118.00
11:06:39:418 -> 1974.00
11:06:39:429 -> 2126.00
11:06:39:439 -> 2047.00
11:06:39:449 -> 2013.00
11:06:39:460 -> 2117.00
11:06:39:470 -> 2009.00
11:06:39:481 -> 2089.00
11:06:39:491 -> 1958.00
11:06:39:501 -> 2068.00
11:06:39:511 -> 1921.00
11:06:39:521 -> 2131.00
11:06:39:532 -> 1944.00
11:06:39:542 -> 2123.00
11:06:39:552 -> 1943.00
11:06:39:563 -> 2154.00
11:06:39:573 -> 1806.00
11:06:39:583 -> 2157.00
11:06:39:593 -> 1931.00
11:06:39:605 -> 2072.00
11:06:39:614 -> 1892.00
11:06:39:625 -> 2168.00
11:06:39:635 -> 1862.00
11:06:39:645 -> 2156.00
11:06:39:656 -> 1901.00
11:06:39:666 -> 2166.00
11:06:39:676 -> 1827.00
11:06:39:686 -> 2104.00
11:06:39:697 -> 1909.00
11:06:39:707 -> 2095.00
11:06:39:718 -> 1933.00
11:06:39:728 -> 2076.00
11:06:39:738 -> 1977.00
11:06:39:750 -> 2048.00
11:06:39:759 -> 2041.00
11:06:39:769 -> 2030.00
11:06:39:779 -> 2063.00
11:06:39:790 -> 1992.00
11:06:39:801 -> 2052.00
11:06:39:810 -> 1971.00
11:06:39:836 -> 2132.00
11:06:39:837 -> 1892.00
11:06:39:841 -> 2122.00
11:06:39:852 -> 1947.00
11:06:39:862 -> 2149.00
11:06:39:872 -> 1923.00
11:06:39:883 -> 2177.00
11:06:39:893 -> 1918.00
11:06:39:903 -> 2178.00
11:06:39:913 -> 1898.00
11:06:39:924 -> 2140.00
11:06:39:934 -> 1842.00
11:06:39:946 -> 2172.00
11:06:39:955 -> 1846.00
11:06:39:965 -> 2171.00
11:06:39:976 -> 1946.00
11:06:39:986 -> 2144.00
11:06:39:996 -> 1807.00
11:06:40:006 -> 2121.00
11:06:40:017 -> 1902.00
11:06:40:027 -> 2053.00
11:06:40:037 -> 1935.00
11:06:40:047 -> 2063.00
11:06:40:058 -> 1991.00
11:06:40:068 -> 2061.00
11:06:40:079 -> 2025.00
11:06:40:089 -> 2043.00
11:06:40:099 -> 2016.00
11:06:40:110 -> 1977.00
11:06:40:120 -> 2096.00
11:06:40:131 -> 1983.00
11:06:40:141 -> 2084.00
11:06:40:151 -> 1937.00
11:06:40:162 -> 1981.00
11:06:40:172 -> 1951.00
11:06:40:182 -> 2144.00
11:06:40:193 -> 1919.00
11:06:40:225 -> 2175.00
11:06:40:225 -> 1876.00
11:06:40:225 -> 2154.00
11:06:40:234 -> 1912.00
11:06:40:244 -> 2149.00
11:06:40:255 -> 1839.00
11:06:40:268 -> 2171.00
11:06:40:275 -> 1886.00
11:06:40:286 -> 2161.00
11:06:40:296 -> 1829.00
11:06:40:306 -> 2142.00
11:06:40:317 -> 1916.00
11:06:40:327 -> 2028.00
11:06:40:355 -> 1987.00
11:06:40:357 -> 2081.00
11:06:40:358 -> 1981.00
11:06:40:368 -> 2013.00
11:06:40:379 -> 2033.00
11:06:40:389 -> 1999.00
11:06:40:400 -> 1958.00
11:06:40:410 -> 1959.00
11:06:40:420 -> 2132.00
11:06:40:430 -> 1850.00
11:06:40:441 -> 2215.00
11:06:40:451 -> 1858.00
11:06:40:461 -> 2178.00
11:06:40:472 -> 1936.00
11:06:40:482 -> 1988.00
11:06:40:492 -> 1919.00
11:06:40:503 -> 2139.00
11:06:40:513 -> 2016.00
11:06:40:523 -> 2162.00
11:06:40:534 -> 1998.00
11:06:40:544 -> 2173.00
11:06:40:555 -> 1602.00
11:06:40:565 -> 2335.00
11:06:40:575 -> 1714.00
11:06:40:585 -> 2144.00
11:06:40:596 -> 1763.00
11:06:40:606 -> 2137.00
11:06:40:616 -> 2124.00
11:06:40:626 -> 2287.00
11:06:40:637 -> 1938.00
11:06:40:647 -> 2184.00
11:06:40:657 -> 1926.00
11:06:40:668 -> 1990.00
11:06:40:678 -> 2139.00
11:06:40:689 -> 1866.00
11:06:40:699 -> 1974.00
11:06:40:709 -> 2031.00
11:06:40:720 -> 2107.00
11:06:40:730 -> 1850.00
11:06:40:740 -> 1981.00
11:06:40:751 -> 2049.00
11:06:40:761 -> 1980.00
11:06:40:771 -> 1973.00
11:06:40:782 -> 2080.00
11:06:40:792 -> 1899.00
11:06:40:802 -> 2279.00
11:06:40:813 -> 1855.00
11:06:40:823 -> 2038.00
11:06:40:833 -> 1877.00
11:06:40:848 -> 2086.00
11:06:40:875 -> 1897.00
11:06:40:875 -> 2205.00
11:06:40:875 -> 1836.00
11:06:40:885 -> 2026.00
11:06:40:896 -> 2014.00
11:06:40:906 -> 2045.00
11:06:40:916 -> 1875.00
11:06:40:926 -> 2112.00
11:06:40:937 -> 1950.00
11:06:40:947 -> 2116.00
11:06:40:957 -> 2027.00
11:06:40:968 -> 1926.00
11:06:40:979 -> 2097.00
11:06:40:988 -> 1995.00
11:06:40:999 -> 1917.00
11:06:41:012 -> 2016.00
11:06:41:019 -> 2146.00
11:06:41:029 -> 1967.00
11:06:41:040 -> 2061.00
11:06:41:050 -> 2105.00
11:06:41:060 -> 1965.00
11:06:41:071 -> 1884.00
11:06:41:081 -> 2127.00
11:06:41:091 -> 1871.00
11:06:41:102 -> 2176.00
11:06:41:112 -> 2010.00
11:06:41:122 -> 2206.00
11:06:41:133 -> 2071.00
11:06:41:143 -> 2234.00
11:06:41:153 -> 1908.00
11:06:41:164 -> 2182.00
11:06:41:174 -> 1927.00
11:06:41:184 -> 2073.00
11:06:41:194 -> 1838.00
11:06:41:205 -> 2157.00
11:06:41:215 -> 1914.00
11:06:41:225 -> 2138.00
11:06:41:241 -> 1809.00
11:06:41:246 -> 2165.00
11:06:41:256 -> 1785.00
11:06:41:267 -> 2112.00
11:06:41:277 -> 1944.00
11:06:41:288 -> 2018.00
11:06:41:298 -> 1921.00
11:06:41:308 -> 2085.00
11:06:41:318 -> 1987.00
11:06:41:329 -> 2011.00
11:06:41:364 -> 2053.00
11:06:41:365 -> 1967.00
11:06:41:365 -> 2107.00
11:06:41:370 -> 1983.00
11:06:41:400 -> 2065.00
11:06:41:402 -> 1925.00
11:06:41:402 -> 2027.00
11:06:41:411 -> 1994.00
11:06:41:422 -> 2063.00
11:06:41:432 -> 1932.00
11:06:41:442 -> 2146.00
11:06:41:453 -> 1897.00
11:06:41:463 -> 2144.00
11:06:41:473 -> 1917.00
11:06:41:484 -> 2131.00
11:06:41:494 -> 1883.00
11:06:41:504 -> 2189.00
11:06:41:515 -> 1882.00
11:06:41:525 -> 2166.00
11:06:41:535 -> 1889.00
11:06:41:546 -> 2284.00
11:06:41:556 -> 1772.00
11:06:41:566 -> 2161.00
11:06:41:580 -> 1870.00
11:06:41:587 -> 2160.00
11:06:41:597 -> 1841.00
11:06:41:607 -> 2136.00
11:06:41:617 -> 1941.00
11:06:41:628 -> 2081.00
11:06:41:638 -> 1975.00
11:06:41:648 -> 2075.00
11:06:41:659 -> 1989.00
11:06:41:669 -> 2027.00
11:06:41:679 -> 2026.00
11:06:41:689 -> 1970.00
11:06:41:700 -> 2093.00
11:06:41:710 -> 1995.00
11:06:41:720 -> 2086.00
11:06:41:731 -> 1927.00
11:06:41:745 -> 2166.00
11:06:41:751 -> 1822.00
11:06:41:762 -> 2180.00
11:06:41:772 -> 1921.00
11:06:41:782 -> 2145.00
11:06:41:792 -> 1887.00
11:06:41:803 -> 2163.00
11:06:41:813 -> 1843.00
11:06:41:824 -> 2201.00
11:06:41:834 -> 1849.00
11:06:41:844 -> 2164.00
11:06:41:854 -> 1917.00
11:06:41:865 -> 2196.00
11:06:41:875 -> 1875.00
11:06:41:885 -> 2204.00
11:06:41:896 -> 1758.00
11:06:41:916 -> 2161.00
11:06:41:917 -> 1888.00
11:06:41:927 -> 2092.00
11:06:41:937 -> 1909.00
11:06:41:948 -> 2053.00
11:06:41:958 -> 1992.00
11:06:41:968 -> 2031.00
11:06:41:978 -> 2025.00
11:06:41:989 -> 2041.00
11:06:41:999 -> 2036.00
11:06:42:009 -> 2048.00
11:06:42:020 -> 2098.00
11:06:42:030 -> 1942.00
11:06:42:040 -> 2066.00
11:06:42:051 -> 1937.00
11:06:42:061 -> 2137.00
11:06:42:071 -> 1899.00
11:06:42:082 -> 2175.00
11:06:42:095 -> 1936.00
11:06:42:102 -> 2187.00
11:06:42:113 -> 1909.00
11:06:42:123 -> 2154.00
11:06:42:133 -> 1891.00
11:06:42:144 -> 2187.00
11:06:42:155 -> 1871.00
11:06:42:165 -> 2185.00
11:06:42:175 -> 1896.00
11:06:42:185 -> 2163.00
11:06:42:196 -> 1857.00
11:06:42:206 -> 2170.00
11:06:42:216 -> 1831.00
11:06:42:227 -> 2110.00
11:06:42:237 -> 1868.00
11:06:42:247 -> 2114.00
11:06:42:257 -> 1919.00
11:06:42:268 -> 2051.00
11:06:42:278 -> 1898.00
11:06:42:288 -> 2048.00
11:06:42:299 -> 2042.00
11:06:42:310 -> 1980.00
11:06:42:320 -> 2105.00
11:06:42:331 -> 1977.00
11:06:42:341 -> 1987.00
11:06:42:351 -> 1951.00
11:06:42:392 -> 2109.00
11:06:42:392 -> 1902.00
11:06:42:392 -> 2151.00
11:06:42:392 -> 1916.00
11:06:42:402 -> 2154.00
11:06:42:412 -> 1904.00
11:06:42:440 -> 2160.00
11:06:42:442 -> 1873.00
11:06:42:443 -> 2179.00
11:06:42:454 -> 1899.00
11:06:42:464 -> 2156.00
11:06:42:474 -> 1884.00
11:06:42:485 -> 2171.00
11:06:42:495 -> 1973.00
11:06:42:511 -> 2158.00
11:06:42:516 -> 1823.00
11:06:42:526 -> 2160.00
11:06:42:537 -> 1898.00
11:06:42:547 -> 2120.00
11:06:42:557 -> 1975.00
11:06:42:568 -> 2065.00
11:06:42:579 -> 2014.00
11:06:42:589 -> 2044.00
11:06:42:599 -> 1987.00
11:06:42:609 -> 1956.00
11:06:42:620 -> 2101.00
11:06:42:630 -> 1962.00
11:06:42:641 -> 2049.00
11:06:42:651 -> 2004.00
11:06:42:661 -> 2146.00
11:06:42:672 -> 1891.00
11:06:42:682 -> 2055.00
11:06:42:692 -> 1945.00
11:06:42:703 -> 2230.00
11:06:42:713 -> 1928.00
11:06:42:723 -> 2193.00
11:06:42:733 -> 1911.00
11:06:42:744 -> 2163.00
11:06:42:754 -> 1845.00
11:06:42:765 -> 2166.00
11:06:42:775 -> 1834.00
11:06:42:785 -> 2221.00
11:06:42:797 -> 1865.00
11:06:42:806 -> 2152.00
11:06:42:816 -> 1744.00
11:06:42:827 -> 2153.00
11:06:42:837 -> 1900.00
11:06:42:847 -> 2052.00
11:06:42:858 -> 1892.00
11:06:42:868 -> 2088.00
11:06:42:878 -> 1986.00
11:06:42:888 -> 2097.00
11:06:42:899 -> 2038.00
11:06:42:909 -> 1984.00
11:06:42:919 -> 2063.00
11:06:42:930 -> 2036.00
11:06:42:958 -> 2087.00
11:06:42:959 -> 2009.00
11:06:42:960 -> 2076.00
11:06:42:971 -> 1895.00
11:06:42:981 -> 2141.00
11:06:42:991 -> 1887.00
11:06:43:002 -> 2131.00
11:06:43:012 -> 1991.00
11:06:43:022 -> 2154.00
11:06:43:033 -> 1980.00
11:06:43:043 -> 2051.00
11:06:43:053 -> 1637.00
11:06:43:063 -> 2148.00
11:06:43:074 -> 2006.00
11:06:43:084 -> 2188.00
11:06:43:094 -> 1906.00
11:06:43:105 -> 2105.00
11:06:43:115 -> 1902.00
11:06:43:129 -> 2134.00
11:06:43:136 -> 2022.00
11:06:43:146 -> 2212.00
11:06:43:156 -> 1788.00
11:06:43:166 -> 2107.00
11:06:43:177 -> 1997.00
11:06:43:187 -> 2090.00
11:06:43:197 -> 1870.00
11:06:43:208 -> 1934.00
11:06:43:218 -> 2082.00
11:06:43:228 -> 2091.00
11:06:43:239 -> 1995.00
11:06:43:249 -> 2015.00
11:06:43:259 -> 2073.00
11:06:43:270 -> 2073.00
11:06:43:280 -> 1983.00
11:06:43:290 -> 1835.00
11:06:43:301 -> 1973.00
11:06:43:311 -> 2024.00
11:06:43:322 -> 1932.00
11:06:43:332 -> 1958.00
11:06:43:342 -> 2151.00
11:06:43:353 -> 1871.00
11:06:43:363 -> 2153.00
11:06:43:373 -> 1954.00
11:06:43:384 -> 2140.00
11:06:43:395 -> 1983.00
11:06:43:405 -> 2153.00
11:06:43:418 -> 1835.00
11:06:43:425 -> 2099.00
11:06:43:436 -> 1705.00
11:06:43:489 -> 2096.00
11:06:43:490 -> 1809.00
11:06:43:490 -> 2149.00
11:06:43:490 -> 1794.00
11:06:43:490 -> 2038.00
11:06:43:497 -> 1986.00
11:06:43:508 -> 2001.00
11:06:43:518 -> 2028.00
11:06:43:528 -> 2097.00
11:06:43:539 -> 2050.00
11:06:43:549 -> 2029.00
11:06:43:559 -> 2044.00
11:06:43:570 -> 2049.00
11:06:43:580 -> 2078.00
11:06:43:590 -> 1999.00
11:06:43:601 -> 1999.00
11:06:43:611 -> 1918.00
11:06:43:621 -> 2055.00
11:06:43:631 -> 1961.00
11:06:43:641 -> 2102.00
11:06:43:652 -> 1911.00
11:06:43:662 -> 2144.00
11:06:43:673 -> 1917.00
11:06:43:683 -> 2162.00
11:06:43:693 -> 1898.00
11:06:43:703 -> 2119.00
11:06:43:714 -> 1859.00
11:06:43:724 -> 2158.00
11:06:43:735 -> 1931.00
11:06:43:745 -> 2221.00
11:06:43:755 -> 1982.00
11:06:43:766 -> 2153.00
11:06:43:776 -> 1751.00
11:06:43:786 -> 2162.00
11:06:43:796 -> 1894.00
11:06:43:807 -> 2095.00
11:06:43:817 -> 1908.00
11:06:43:827 -> 2025.00
11:06:43:838 -> 1962.00
11:06:43:848 -> 2055.00
11:06:43:858 -> 2043.00
11:06:43:869 -> 2020.00
11:06:43:879 -> 2028.00
11:06:43:889 -> 1991.00
11:06:43:900 -> 2122.00
11:06:43:910 -> 1955.00
11:06:43:920 -> 2097.00
11:06:43:931 -> 1957.00
11:06:43:941 -> 2098.00
11:06:43:951 -> 1938.00
11:06:43:962 -> 2093.00
11:06:43:972 -> 1958.00
11:06:43:982 -> 2208.00
11:06:44:012 -> 1866.00
11:06:44:012 -> 2126.00
11:06:44:013 -> 1907.00
11:06:44:024 -> 2169.00
11:06:44:034 -> 1846.00
11:06:44:044 -> 2159.00
11:06:44:055 -> 1869.00
11:06:44:065 -> 2156.00
11:06:44:075 -> 1893.00
11:06:44:086 -> 2214.00
11:06:44:096 -> 1793.00
11:06:44:106 -> 2163.00
11:06:44:117 -> 1842.00
11:06:44:128 -> 2072.00
11:06:44:137 -> 1879.00
11:06:44:147 -> 2085.00
11:06:44:158 -> 1947.00
11:06:44:168 -> 2069.00
11:06:44:178 -> 2007.00
11:06:44:189 -> 2024.00
11:06:44:199 -> 1985.00
11:06:44:210 -> 1990.00
11:06:44:220 -> 2091.00
11:06:44:230 -> 2015.00
11:06:44:240 -> 2116.00
11:06:44:251 -> 1980.00
11:06:44:261 -> 2074.00
11:06:44:272 -> 1932.00
11:06:44:281 -> 2093.00
11:06:44:292 -> 1949.00
11:06:44:327 -> 2140.00
11:06:44:327 -> 1943.00
11:06:44:327 -> 2148.00
11:06:44:333 -> 1921.00
11:06:44:343 -> 2154.00
11:06:44:354 -> 1856.00
11:06:44:364 -> 2155.00
11:06:44:375 -> 1909.00
11:06:44:385 -> 2100.00
11:06:44:395 -> 1991.00
11:06:44:405 -> 2120.00
11:06:44:416 -> 1852.00
11:06:44:426 -> 2134.00
11:06:44:436 -> 1861.00
11:06:44:447 -> 2087.00
11:06:44:457 -> 1925.00
11:06:44:467 -> 2084.00
11:06:44:478 -> 1987.00
11:06:44:488 -> 2042.00
11:06:44:498 -> 1980.00
11:06:44:509 -> 2035.00
11:06:44:532 -> 2053.00
11:06:44:534 -> 1994.00
11:06:44:539 -> 2059.00
11:06:44:549 -> 2015.00
11:06:44:560 -> 2053.00
11:06:44:570 -> 1961.00
11:06:44:580 -> 2064.00
11:06:44:591 -> 1966.00
11:06:44:601 -> 2060.00
11:06:44:611 -> 1968.00
11:06:44:622 -> 2118.00
11:06:44:632 -> 2025.00
11:06:44:642 -> 2107.00
11:06:44:653 -> 1964.00
11:06:44:663 -> 2150.00
11:06:44:673 -> 1930.00
11:06:44:684 -> 2113.00
11:06:44:694 -> 1898.00
11:06:44:704 -> 2134.00
11:06:44:715 -> 1833.00
11:06:44:725 -> 2078.00
11:06:44:735 -> 1866.00
11:06:44:746 -> 2141.00
11:06:44:756 -> 1926.00
11:06:44:766 -> 2129.00
11:06:44:780 -> 1930.00
11:06:44:787 -> 2081.00
11:06:44:797 -> 1932.00
11:06:44:807 -> 2075.00
11:06:44:818 -> 1968.00
11:06:44:828 -> 2014.00
11:06:44:838 -> 2062.00
11:06:44:849 -> 2025.00
11:06:44:859 -> 1986.00
11:06:44:870 -> 2040.00
11:06:44:880 -> 2070.00
11:06:44:890 -> 1974.00
11:06:44:900 -> 2017.00
11:06:44:910 -> 1970.00
11:06:44:921 -> 2070.00
11:06:44:931 -> 1978.00
11:06:44:941 -> 2077.00
11:06:44:952 -> 2003.00
11:06:44:962 -> 2090.00
11:06:44:973 -> 1918.00
11:06:44:983 -> 2176.00
11:06:44:993 -> 1897.00
11:06:45:003 -> 2129.00
11:06:45:014 -> 1860.00
11:06:45:024 -> 2189.00
11:06:45:050 -> 1917.00
11:06:45:051 -> 2197.00
11:06:45:060 -> 1851.00
11:06:45:066 -> 2165.00
11:06:45:076 -> 1906.00
11:06:45:086 -> 2103.00
11:06:45:096 -> 1873.00
11:06:45:107 -> 2145.00
11:06:45:117 -> 1861.00
11:06:45:147 -> 2118.00
11:06:45:147 -> 1916.00
11:06:45:148 -> 2103.00
11:06:45:158 -> 2017.00
11:06:45:169 -> 2079.00
11:06:45:179 -> 2020.00
11:06:45:189 -> 2033.00
11:06:45:200 -> 2044.00
11:06:45:210 -> 1961.00
11:06:45:220 -> 2083.00
11:06:45:231 -> 1897.00
11:06:45:241 -> 2110.00
11:06:45:251 -> 1945.00
11:06:45:262 -> 2093.00
11:06:45:272 -> 1892.00
11:06:45:282 -> 2192.00
11:06:45:293 -> 1908.00
11:06:45:303 -> 2222.00
11:06:45:314 -> 1819.00
11:06:45:324 -> 2220.00
11:06:45:334 -> 1942.00
11:06:45:344 -> 2198.00
11:06:45:355 -> 1762.00
11:06:45:365 -> 2197.00
11:06:45:375 -> 1796.00
11:06:45:386 -> 2227.00
11:06:45:398 -> 1811.00
11:06:45:406 -> 2209.00
11:06:45:417 -> 1845.00
11:06:45:427 -> 2202.00
11:06:45:437 -> 1840.00
11:06:45:448 -> 2182.00
11:06:45:458 -> 1932.00
11:06:45:468 -> 2134.00
11:06:45:478 -> 1956.00
11:06:45:489 -> 2086.00
11:06:45:499 -> 2009.00
11:06:45:509 -> 2041.00
11:06:45:519 -> 2026.00
11:06:45:530 -> 1999.00
11:06:45:540 -> 2041.00
11:06:45:566 -> 1937.00
11:06:45:567 -> 2126.00
11:06:45:571 -> 1892.00
11:06:45:581 -> 2153.00
11:06:45:592 -> 1890.00
11:06:45:602 -> 2194.00
11:06:45:612 -> 1886.00
11:06:45:623 -> 2198.00
11:06:45:633 -> 1813.00
11:06:45:643 -> 2209.00
11:06:45:654 -> 1801.00
11:06:45:664 -> 2215.00
11:06:45:674 -> 1889.00
11:06:45:684 -> 2249.00
11:06:45:697 -> 1723.00
11:06:45:705 -> 2293.00
11:06:45:715 -> 1749.00
11:06:45:726 -> 2256.00
11:06:45:736 -> 1807.00
11:06:45:746 -> 2243.00
11:06:45:757 -> 1826.00
11:06:45:767 -> 2183.00
11:06:45:777 -> 1833.00
11:06:45:788 -> 2212.00
11:06:45:798 -> 1844.00
11:06:45:808 -> 2143.00
11:06:45:819 -> 1957.00
11:06:45:829 -> 2085.00
11:06:45:839 -> 1996.00
11:06:45:850 -> 2086.00
11:06:45:860 -> 2034.00
11:06:45:870 -> 1953.00
11:06:45:881 -> 2079.00
11:06:45:891 -> 1936.00
11:06:45:901 -> 2124.00
11:06:45:912 -> 1890.00
11:06:45:922 -> 2207.00
