13:36:11:121 -> 2077
13:36:11:131 -> 2084
13:36:11:141 -> 2091
13:36:11:151 -> 2069
13:36:11:161 -> 2070
13:36:11:171 -> 2119
13:36:11:181 -> 2072
13:36:11:191 -> 2115
13:36:11:206 -> 2039
13:36:11:212 -> 2090
13:36:11:222 -> 2037
13:36:11:239 -> 2102
13:36:11:249 -> 2047
13:36:11:253 -> 2092
13:36:11:262 -> 2068
13:36:11:272 -> 2101
13:36:11:282 -> 2054
13:36:11:292 -> 2075
13:36:11:304 -> 2051
13:36:11:312 -> 2057
13:36:11:322 -> 2049
13:36:11:332 -> 2082
13:36:11:359 -> 2009
13:36:11:361 -> 2094
13:36:11:362 -> 2036
13:36:11:372 -> 2098
13:36:11:382 -> 2061
13:36:11:392 -> 2101
13:36:11:402 -> 2027
13:36:11:412 -> 2146
13:36:11:422 -> 2009
13:36:11:432 -> 2156
13:36:11:443 -> 1981
13:36:11:453 -> 2162
13:36:11:463 -> 2005
13:36:11:473 -> 2180
13:36:11:483 -> 2001
13:36:11:493 -> 2108
13:36:11:503 -> 2028
13:36:11:513 -> 2174
13:36:11:523 -> 2017
13:36:11:533 -> 2144
13:36:11:544 -> 2062
13:36:11:553 -> 2132
13:36:11:563 -> 1997
13:36:11:573 -> 2169
13:36:11:583 -> 1938
13:36:11:593 -> 2111
13:36:11:603 -> 2066
13:36:11:613 -> 2063
13:36:11:623 -> 2058
13:36:11:633 -> 2117
13:36:11:644 -> 1990
13:36:11:653 -> 2193
13:36:11:664 -> 2054
13:36:11:673 -> 2279
13:36:11:683 -> 1504
13:36:11:694 -> 2272
13:36:11:706 -> 1971
13:36:11:717 -> 2116
13:36:11:724 -> 1923
13:36:11:734 -> 1864
13:36:11:744 -> 2061
13:36:11:754 -> 2163
13:36:11:764 -> 2354
13:36:11:774 -> 2163
13:36:11:784 -> 2211
13:36:11:794 -> 1582
13:36:11:804 -> 2118
13:36:11:814 -> 2031
13:36:11:824 -> 1955
13:36:11:834 -> 2109
13:36:11:845 -> 2055
13:36:11:854 -> 2255
13:36:11:885 -> 2257
13:36:11:886 -> 1283
13:36:11:886 -> 2221
13:36:11:895 -> 2145
13:36:11:905 -> 2076
13:36:11:915 -> 2135
13:36:11:925 -> 2016
13:36:11:935 -> 2243
13:36:11:945 -> 2151
13:36:11:955 -> 2293
13:36:11:965 -> 2441
13:36:11:978 -> 2374
13:36:11:986 -> 1899
13:36:11:995 -> 1694
13:36:12:005 -> 1935
13:36:12:015 -> 2286
13:36:12:025 -> 1966
13:36:12:035 -> 1930
13:36:12:045 -> 1035
13:36:12:055 -> 2606
13:36:12:065 -> 2180
13:36:12:075 -> 2368
13:36:12:085 -> 1981
13:36:12:096 -> 2255
13:36:12:105 -> 1817
13:36:12:115 -> 2008
13:36:12:125 -> 2380
13:36:12:135 -> 1955
13:36:12:145 -> 1680
13:36:12:156 -> 2288
13:36:12:166 -> 1689
13:36:12:176 -> 2154
13:36:12:186 -> 2104
13:36:12:196 -> 2426
13:36:12:206 -> 1793
13:36:12:218 -> 1943
13:36:12:243 -> 2005
13:36:12:243 -> 2311
13:36:12:285 -> 1775
13:36:12:285 -> 2229
13:36:12:285 -> 1741
13:36:12:285 -> 2503
13:36:12:321 -> 2023
13:36:12:321 -> 2235
13:36:12:321 -> 2452
13:36:12:321 -> 1847
13:36:12:328 -> 2059
13:36:12:372 -> 2194
13:36:12:372 -> 1986
13:36:12:372 -> 2210
13:36:12:424 -> 1281
13:36:12:424 -> 2239
13:36:12:424 -> 2051
13:36:12:436 -> 2200
13:36:12:436 -> 2159
13:36:12:436 -> 2173
13:36:12:436 -> 1964
13:36:12:441 -> 2329
13:36:12:455 -> 1941
13:36:12:460 -> 2835
13:36:12:467 -> 1898
13:36:12:478 -> 2276
13:36:12:487 -> 1766
13:36:12:502 -> 2074
13:36:12:507 -> 1881
13:36:12:517 -> 1971
13:36:12:533 -> 1438
13:36:12:539 -> 2539
13:36:12:547 -> 1918
13:36:12:558 -> 1691
13:36:12:567 -> 1324
13:36:12:577 -> 2259
13:36:12:591 -> 1933
13:36:12:599 -> 2226
13:36:12:608 -> 1892
13:36:12:618 -> 1881
13:36:12:628 -> 2015
13:36:12:638 -> 2419
13:36:12:648 -> 1826
13:36:12:658 -> 2197
13:36:12:668 -> 1863
13:36:12:678 -> 2186
13:36:12:698 -> 1722
13:36:12:700 -> 1840
13:36:12:708 -> 2037
13:36:12:718 -> 2336
13:36:12:728 -> 2063
13:36:12:738 -> 2166
13:36:12:748 -> 2208
13:36:12:758 -> 2363
13:36:12:768 -> 1911
13:36:12:778 -> 2198
13:36:12:788 -> 2114
13:36:12:799 -> 2196
13:36:12:811 -> 2227
13:36:12:818 -> 2172
13:36:12:829 -> 2010
13:36:12:839 -> 2269
13:36:12:849 -> 2006
13:36:12:859 -> 2189
13:36:12:869 -> 2034
13:36:12:879 -> 2029
13:36:12:890 -> 2159
13:36:12:899 -> 2124
13:36:12:909 -> 2119
13:36:12:919 -> 2124
13:36:12:951 -> 2007
13:36:12:953 -> 2168
13:36:12:953 -> 2017
13:36:12:959 -> 2034
13:36:12:969 -> 1962
13:36:12:979 -> 2593
13:36:12:989 -> 1966
13:36:13:005 -> 2209
13:36:13:012 -> 2071
13:36:13:019 -> 2233
13:36:13:030 -> 2237
13:36:13:040 -> 2094
13:36:13:050 -> 2098
13:36:13:060 -> 2642
13:36:13:070 -> 2099
13:36:13:080 -> 1938
13:36:13:090 -> 2158
13:36:13:100 -> 2344
13:36:13:111 -> 1899
13:36:13:120 -> 2190
13:36:13:130 -> 2096
13:36:13:140 -> 1951
13:36:13:150 -> 2156
13:36:13:160 -> 2016
13:36:13:170 -> 2134
13:36:13:180 -> 2165
13:36:13:190 -> 1798
13:36:13:208 -> 1927
13:36:13:210 -> 2134
13:36:13:220 -> 2093
13:36:13:230 -> 2149
13:36:13:240 -> 1988
13:36:13:250 -> 2074
13:36:13:261 -> 2110
13:36:13:271 -> 2102
13:36:13:281 -> 2079
13:36:13:290 -> 2080
13:36:13:301 -> 2071
13:36:13:319 -> 2068
13:36:13:322 -> 2111
13:36:13:331 -> 2062
13:36:13:344 -> 2074
13:36:13:351 -> 2065
13:36:13:361 -> 2060
13:36:13:371 -> 2080
13:36:13:381 -> 2085
13:36:13:391 -> 2086
13:36:13:401 -> 2084
13:36:13:411 -> 2081
13:36:13:421 -> 2074
13:36:13:431 -> 2082
13:36:13:441 -> 2055
13:36:13:474 -> 2095
13:36:13:475 -> 2055
13:36:13:475 -> 2097
13:36:13:482 -> 2099
13:36:13:492 -> 2084
13:36:13:502 -> 2121
13:36:13:512 -> 2100
13:36:13:522 -> 2075
13:36:13:532 -> 2116
13:36:13:548 -> 2066
13:36:13:553 -> 2121
13:36:13:562 -> 2046
13:36:13:574 -> 2135
13:36:13:582 -> 2009
13:36:13:592 -> 2156
13:36:13:602 -> 1985
13:36:13:612 -> 2144
13:36:13:622 -> 1987
13:36:13:632 -> 2137
13:36:13:642 -> 2000
13:36:13:652 -> 2128
13:36:13:662 -> 1997
13:36:13:672 -> 2136
13:36:13:682 -> 2018
13:36:13:692 -> 2103
13:36:13:702 -> 2017
13:36:13:712 -> 2093
13:36:13:722 -> 2043
13:36:13:737 -> 2088
13:36:13:743 -> 2065
13:36:13:753 -> 2073
13:36:13:763 -> 2069
13:36:13:773 -> 2075
13:36:13:783 -> 2100
13:36:13:793 -> 2062
13:36:13:803 -> 2089
13:36:13:813 -> 2088
13:36:13:823 -> 2083
13:36:13:833 -> 2095
13:36:13:843 -> 2089
13:36:13:853 -> 2123
13:36:13:863 -> 2089
13:36:13:873 -> 2096
13:36:13:883 -> 2092
13:36:13:893 -> 2090
13:36:13:903 -> 2107
13:36:13:913 -> 2089
13:36:13:936 -> 2083
13:36:13:944 -> 2124
13:36:13:944 -> 2077
13:36:13:959 -> 2123
13:36:13:963 -> 2059
13:36:14:031 -> 2130
13:36:14:058 -> 2059
13:36:14:058 -> 2132
13:36:14:058 -> 2049
13:36:14:058 -> 2130
13:36:14:058 -> 2043
13:36:14:058 -> 2121
13:36:14:058 -> 2042
13:36:14:058 -> 2128
13:36:14:064 -> 2047
13:36:14:076 -> 2114
13:36:14:097 -> 2057
13:36:14:097 -> 2116
13:36:14:104 -> 2040
13:36:14:114 -> 2109
13:36:14:124 -> 2037
13:36:14:135 -> 2128
13:36:14:144 -> 2024
13:36:14:155 -> 2140
13:36:14:164 -> 1992
13:36:14:174 -> 2142
13:36:14:184 -> 2007
13:36:14:195 -> 2121
13:36:14:205 -> 1990
13:36:14:215 -> 2144
13:36:14:225 -> 1997
13:36:14:235 -> 2152
13:36:14:245 -> 1992
13:36:14:255 -> 2145
13:36:14:265 -> 1981
13:36:14:287 -> 2132
13:36:14:291 -> 1973
13:36:14:295 -> 2150
13:36:14:305 -> 1981
13:36:14:316 -> 2158
13:36:14:325 -> 1965
13:36:14:335 -> 2158
13:36:14:347 -> 1978
13:36:14:360 -> 2142
13:36:14:372 -> 1972
13:36:14:375 -> 2157
13:36:14:385 -> 1981
13:36:14:395 -> 2170
13:36:14:405 -> 1971
13:36:14:416 -> 2191
13:36:14:425 -> 1966
13:36:14:436 -> 2206
13:36:14:446 -> 1950
13:36:14:456 -> 2192
13:36:14:466 -> 1938
13:36:14:477 -> 2211
13:36:14:486 -> 1941
13:36:14:496 -> 2212
13:36:14:506 -> 1916
13:36:14:516 -> 2218
13:36:14:526 -> 1934
13:36:14:559 -> 2224
13:36:14:560 -> 1917
13:36:14:560 -> 2220
13:36:14:575 -> 1930
13:36:14:579 -> 2219
13:36:14:586 -> 1929
13:36:14:596 -> 2246
13:36:14:606 -> 1956
13:36:14:616 -> 2204
13:36:14:626 -> 1937
13:36:14:637 -> 2243
13:36:14:646 -> 1959
13:36:14:657 -> 2233
13:36:14:667 -> 1955
13:36:14:677 -> 2246
13:36:14:687 -> 1943
13:36:14:697 -> 2265
13:36:14:707 -> 1951
13:36:14:717 -> 2240
13:36:14:727 -> 1964
13:36:14:737 -> 2232
13:36:14:747 -> 1966
13:36:14:757 -> 2210
13:36:14:767 -> 1956
13:36:14:777 -> 2222
13:36:14:787 -> 1928
13:36:14:797 -> 2195
13:36:14:807 -> 1973
13:36:14:822 -> 2167
13:36:14:827 -> 1926
13:36:14:839 -> 2165
13:36:14:848 -> 2062
13:36:14:857 -> 2161
13:36:14:867 -> 1989
13:36:14:877 -> 2150
13:36:14:887 -> 1901
13:36:14:898 -> 2190
13:36:14:907 -> 2004
13:36:14:918 -> 2269
13:36:14:928 -> 1859
13:36:14:938 -> 2140
13:36:14:948 -> 1957
13:36:14:958 -> 2154
13:36:14:968 -> 1989
13:36:14:978 -> 2037
13:36:14:988 -> 2037
13:36:14:998 -> 2215
13:36:15:008 -> 1975
13:36:15:018 -> 2026
13:36:15:028 -> 1990
13:36:15:038 -> 2267
13:36:15:048 -> 1726
13:36:15:084 -> 1972
13:36:15:105 -> 1978
13:36:15:105 -> 1927
13:36:15:105 -> 2135
13:36:15:105 -> 1881
13:36:15:108 -> 1904
13:36:15:118 -> 1714
13:36:15:130 -> 2218
13:36:15:142 -> 1969
13:36:15:149 -> 2020
13:36:15:159 -> 2334
13:36:15:169 -> 2111
13:36:15:179 -> 1878
13:36:15:189 -> 2395
13:36:15:199 -> 2294
13:36:15:209 -> 1693
13:36:15:219 -> 2393
13:36:15:229 -> 2399
13:36:15:239 -> 2179
13:36:15:249 -> 2092
13:36:15:260 -> 1831
13:36:15:269 -> 2103
13:36:15:280 -> 2292
13:36:15:289 -> 1777
13:36:15:299 -> 2419
13:36:15:309 -> 2150
13:36:15:319 -> 1975
13:36:15:329 -> 1983
13:36:15:340 -> 2162
13:36:15:350 -> 1776
13:36:15:359 -> 2403
13:36:15:380 -> 2229
13:36:15:381 -> 2296
13:36:15:390 -> 2118
13:36:15:400 -> 2152
13:36:15:410 -> 1987
13:36:15:420 -> 2220
13:36:15:430 -> 2127
13:36:15:440 -> 2078
13:36:15:450 -> 1930
13:36:15:461 -> 2089
13:36:15:470 -> 1987
13:36:15:480 -> 2223
13:36:15:490 -> 2094
13:36:15:500 -> 2113
13:36:15:510 -> 1940
13:36:15:520 -> 1917
13:36:15:530 -> 2413
13:36:15:540 -> 2199
13:36:15:551 -> 2182
13:36:15:560 -> 1999
13:36:15:571 -> 2137
13:36:15:580 -> 2244
13:36:15:619 -> 1941
13:36:15:620 -> 1920
13:36:15:620 -> 2261
13:36:15:621 -> 2262
13:36:15:631 -> 2083
13:36:15:641 -> 1843
13:36:15:651 -> 1873
13:36:15:661 -> 1971
13:36:15:671 -> 2083
13:36:15:681 -> 2092
13:36:15:691 -> 1688
13:36:15:701 -> 2111
13:36:15:711 -> 2108
13:36:15:721 -> 1866
13:36:15:731 -> 1635
13:36:15:741 -> 2093
13:36:15:751 -> 2460
13:36:15:761 -> 1914
13:36:15:771 -> 2394
13:36:15:781 -> 1497
13:36:15:791 -> 2272
13:36:15:801 -> 1912
13:36:15:819 -> 2257
13:36:15:822 -> 2548
13:36:15:832 -> 1980
13:36:15:842 -> 2209
13:36:15:852 -> 1888
13:36:15:862 -> 1992
13:36:15:872 -> 2168
13:36:15:888 -> 1989
13:36:15:907 -> 2061
13:36:15:907 -> 2251
13:36:15:921 -> 2137
13:36:15:940 -> 1934
13:36:15:940 -> 2469
13:36:15:957 -> 1643
13:36:15:957 -> 2298
13:36:15:985 -> 2133
13:36:15:985 -> 2228
13:36:15:985 -> 2419
13:36:16:004 -> 2182
13:36:16:004 -> 2096
13:36:16:012 -> 2059
13:36:16:024 -> 2108
13:36:16:033 -> 1915
13:36:16:044 -> 2067
13:36:16:053 -> 2278
13:36:16:063 -> 1918
13:36:16:073 -> 2313
13:36:16:083 -> 1950
13:36:16:093 -> 2220
13:36:16:103 -> 2095
13:36:16:113 -> 2108
13:36:16:162 -> 1981
13:36:16:164 -> 2010
13:36:16:164 -> 2109
13:36:16:164 -> 2188
13:36:16:164 -> 2318
13:36:16:173 -> 1938
13:36:16:183 -> 2234
13:36:16:210 -> 2021
13:36:16:215 -> 2078
13:36:16:215 -> 2154
13:36:16:223 -> 1978
13:36:16:236 -> 2198
13:36:16:244 -> 2284
13:36:16:254 -> 2258
13:36:16:263 -> 2273
13:36:16:274 -> 2448
13:36:16:284 -> 2115
13:36:16:294 -> 2210
13:36:16:304 -> 2402
13:36:16:314 -> 2079
13:36:16:324 -> 1960
13:36:16:334 -> 2302
13:36:16:344 -> 2123
13:36:16:354 -> 2095
13:36:16:365 -> 2113
13:36:16:375 -> 2140
13:36:16:384 -> 2153
13:36:16:395 -> 2298
13:36:16:404 -> 1655
13:36:16:414 -> 2093
13:36:16:424 -> 2077
13:36:16:435 -> 2049
13:36:16:444 -> 2047
13:36:16:454 -> 1986
13:36:16:474 -> 2029
13:36:16:483 -> 2144
13:36:16:495 -> 2160
13:36:16:484 -> 1932
13:36:16:505 -> 1993
13:36:16:515 -> 2154
13:36:16:525 -> 1996
13:36:16:535 -> 2164
13:36:16:546 -> 1927
13:36:16:555 -> 2120
13:36:16:565 -> 1986
13:36:16:575 -> 2121
13:36:16:585 -> 1966
13:36:16:596 -> 2205
13:36:16:605 -> 1951
13:36:16:615 -> 2183
13:36:16:625 -> 1921
13:36:16:635 -> 2230
13:36:16:645 -> 1902
13:36:16:655 -> 2236
13:36:16:688 -> 1915
13:36:16:689 -> 2227
13:36:16:689 -> 1938
13:36:16:703 -> 2232
13:36:16:705 -> 1880
13:36:16:715 -> 2225
13:36:16:726 -> 1931
13:36:16:736 -> 2232
13:36:16:746 -> 1910
13:36:16:756 -> 2230
13:36:16:766 -> 1932
13:36:16:776 -> 2256
13:36:16:786 -> 1952
13:36:16:796 -> 2255
13:36:16:806 -> 1951
13:36:16:816 -> 2227
13:36:16:826 -> 1950
13:36:16:836 -> 2218
13:36:16:846 -> 1936
13:36:16:856 -> 2189
13:36:16:866 -> 1947
13:36:16:876 -> 2196
13:36:16:886 -> 1949
13:36:16:902 -> 2201
13:36:16:909 -> 1966
13:36:16:916 -> 2204
13:36:16:927 -> 1954
13:36:16:936 -> 2190
13:36:16:947 -> 1966
13:36:16:957 -> 2190
13:36:16:967 -> 1950
13:36:16:977 -> 2190
13:36:16:987 -> 1943
13:36:16:997 -> 2190
13:36:17:007 -> 1968
13:36:17:017 -> 2188
13:36:17:027 -> 1965
13:36:17:037 -> 2188
13:36:17:047 -> 1983
13:36:17:057 -> 2176
13:36:17:067 -> 1994
13:36:17:077 -> 2174
13:36:17:087 -> 1981
13:36:17:097 -> 2152
13:36:17:107 -> 1996
13:36:17:117 -> 2169
13:36:17:133 -> 1986
13:36:17:137 -> 2147
13:36:17:148 -> 1989
13:36:17:157 -> 2143
13:36:17:167 -> 2005
13:36:17:177 -> 2133
13:36:17:218 -> 2004
13:36:17:240 -> 2119
13:36:17:240 -> 2021
13:36:17:240 -> 2120
13:36:17:242 -> 1994
13:36:17:242 -> 2113
13:36:17:248 -> 2033
13:36:17:258 -> 2108
13:36:17:268 -> 2045
13:36:17:278 -> 2116
13:36:17:288 -> 2056
13:36:17:298 -> 2109
13:36:17:308 -> 2039
13:36:17:319 -> 2110
13:36:17:328 -> 2049
13:36:17:338 -> 2115
13:36:17:348 -> 2037
13:36:17:358 -> 2118
13:36:17:368 -> 2040
13:36:17:378 -> 2112
13:36:17:389 -> 2054
13:36:17:399 -> 2120
13:36:17:413 -> 2049
13:36:17:438 -> 2116
13:36:17:438 -> 2071
13:36:17:441 -> 2123
13:36:17:491 -> 2058
13:36:17:491 -> 2115
13:36:17:491 -> 2071
13:36:17:491 -> 2116
13:36:17:491 -> 2067
13:36:17:500 -> 2101
13:36:17:511 -> 2075
13:36:17:523 -> 2110
13:36:17:535 -> 2071
13:36:17:539 -> 2109
13:36:17:549 -> 2070
13:36:17:559 -> 2092
13:36:17:569 -> 2086
13:36:17:579 -> 2076
13:36:17:589 -> 2078
13:36:17:599 -> 2080
13:36:17:609 -> 2082
13:36:17:619 -> 2069
13:36:17:629 -> 2082
13:36:17:640 -> 2063
13:36:17:650 -> 2086
13:36:17:660 -> 2090
13:36:17:670 -> 2101
13:36:17:680 -> 2065
13:36:17:690 -> 2076
13:36:17:700 -> 2058
13:36:17:710 -> 2080
13:36:17:752 -> 2072
13:36:17:753 -> 2094
13:36:17:753 -> 2063
13:36:17:753 -> 2106
13:36:17:760 -> 2045
13:36:17:770 -> 2090
13:36:17:780 -> 2064
13:36:17:790 -> 2100
13:36:17:800 -> 2059
13:36:17:810 -> 2093
13:36:17:820 -> 2063
13:36:17:830 -> 2114
13:36:17:840 -> 2034
13:36:17:851 -> 2131
13:36:17:861 -> 2028
13:36:17:871 -> 2118
13:36:17:881 -> 1999
13:36:17:891 -> 2149
13:36:17:901 -> 1990
13:36:17:911 -> 2140
13:36:17:921 -> 2001
13:36:17:944 -> 2139
13:36:17:946 -> 2000
13:36:17:951 -> 2132
13:36:17:961 -> 2033
13:36:17:971 -> 2134
13:36:17:981 -> 2035
13:36:17:991 -> 2106
13:36:18:001 -> 2058
13:36:18:011 -> 2092
13:36:18:021 -> 2081
13:36:18:033 -> 2069
13:36:18:041 -> 2088
13:36:18:051 -> 2069
13:36:18:061 -> 2057
13:36:18:072 -> 2119
13:36:18:081 -> 2047
13:36:18:092 -> 2111
13:36:18:101 -> 2074
13:36:18:112 -> 2072
13:36:18:122 -> 2103
13:36:18:132 -> 2096
13:36:18:142 -> 2059
13:36:18:152 -> 2017
13:36:18:162 -> 2104
13:36:18:172 -> 2062
13:36:18:182 -> 2087
13:36:18:192 -> 2109
13:36:18:202 -> 2088
13:36:18:212 -> 2106
13:36:18:222 -> 2076
13:36:18:235 -> 2106
13:36:18:242 -> 2046
13:36:18:281 -> 2169
13:36:18:283 -> 2065
13:36:18:283 -> 2049
13:36:18:283 -> 2066
13:36:18:292 -> 2163
13:36:18:302 -> 2032
13:36:18:312 -> 2148
13:36:18:322 -> 1950
13:36:18:332 -> 2028
13:36:18:343 -> 2070
13:36:18:353 -> 2164
13:36:18:363 -> 2103
13:36:18:373 -> 1997
13:36:18:384 -> 2116
13:36:18:393 -> 1977
13:36:18:403 -> 2072
13:36:18:413 -> 2198
13:36:18:423 -> 2034
13:36:18:433 -> 2225
13:36:18:443 -> 1878
13:36:18:453 -> 2244
13:36:18:463 -> 1701
13:36:18:484 -> 2178
13:36:18:486 -> 1836
13:36:18:493 -> 2250
13:36:18:503 -> 2007
13:36:18:513 -> 2121
13:36:18:523 -> 2040
13:36:18:533 -> 2222
13:36:18:543 -> 2050
13:36:18:553 -> 2108
13:36:18:564 -> 2172
13:36:18:573 -> 2257
13:36:18:584 -> 2009
13:36:18:594 -> 2019
13:36:18:604 -> 2110
13:36:18:614 -> 2313
13:36:18:624 -> 1574
13:36:18:634 -> 2084
13:36:18:644 -> 1881
13:36:18:654 -> 2018
13:36:18:664 -> 2160
13:36:18:674 -> 2187
13:36:18:684 -> 1596
13:36:18:694 -> 2103
13:36:18:704 -> 2130
13:36:18:714 -> 2194
13:36:18:724 -> 1940
13:36:18:734 -> 1960
13:36:18:744 -> 2040
13:36:18:754 -> 2372
13:36:18:764 -> 2240
13:36:18:774 -> 2386
13:36:18:814 -> 1890
13:36:18:816 -> 2377
13:36:18:816 -> 1932
13:36:18:816 -> 2279
13:36:18:825 -> 2176
13:36:18:835 -> 2311
13:36:18:845 -> 1923
13:36:18:855 -> 2343
13:36:18:865 -> 2071
13:36:18:875 -> 2270
13:36:18:885 -> 1917
13:36:18:895 -> 2524
13:36:18:905 -> 2002
13:36:18:915 -> 2018
13:36:18:925 -> 2024
13:36:18:935 -> 2279
13:36:18:946 -> 2179
13:36:18:955 -> 2283
13:36:18:965 -> 2055
13:36:18:976 -> 2250
13:36:18:985 -> 1905
13:36:19:002 -> 2089
13:36:19:005 -> 1975
13:36:19:015 -> 2215
13:36:19:026 -> 1831
13:36:19:035 -> 2229
13:36:19:046 -> 1796
13:36:19:056 -> 2172
13:36:19:066 -> 1863
13:36:19:076 -> 2277
13:36:19:086 -> 2094
13:36:19:096 -> 1852
13:36:19:106 -> 1913
13:36:19:116 -> 2302
13:36:19:126 -> 1964
13:36:19:136 -> 2397
13:36:19:146 -> 2207
13:36:19:156 -> 2199
13:36:19:166 -> 2043
13:36:19:176 -> 2019
13:36:19:186 -> 1978
13:36:19:196 -> 1882
13:36:19:207 -> 2087
13:36:19:216 -> 2125
13:36:19:235 -> 1908
13:36:19:237 -> 2167
13:36:19:246 -> 2023
13:36:19:256 -> 2254
13:36:19:266 -> 2058
13:36:19:277 -> 2163
13:36:19:293 -> 1981
13:36:19:369 -> 2005
13:36:19:369 -> 2046
13:36:19:369 -> 2152
13:36:19:385 -> 2045
13:36:19:385 -> 2086
13:36:19:385 -> 1991
13:36:19:385 -> 1964
13:36:19:385 -> 2029
13:36:19:385 -> 2074
13:36:19:410 -> 2092
13:36:19:410 -> 2254
13:36:19:410 -> 2069
13:36:19:420 -> 2093
13:36:19:431 -> 2064
13:36:19:441 -> 2408
13:36:19:447 -> 1944
13:36:19:457 -> 1915
13:36:19:467 -> 2318
13:36:19:478 -> 1916
13:36:19:488 -> 2041
13:36:19:498 -> 1981
13:36:19:510 -> 2026
13:36:19:520 -> 2052
13:36:19:528 -> 2043
13:36:19:538 -> 2018
13:36:19:548 -> 2226
13:36:19:558 -> 2052
13:36:19:568 -> 2239
13:36:19:578 -> 1981
13:36:19:588 -> 2049
13:36:19:598 -> 2280
13:36:19:608 -> 2229
13:36:19:618 -> 2370
13:36:19:628 -> 2046
13:36:19:638 -> 2131
13:36:19:648 -> 2081
13:36:19:658 -> 1978
13:36:19:668 -> 2075
13:36:19:678 -> 1830
13:36:19:688 -> 1959
13:36:19:698 -> 2171
13:36:19:716 -> 2168
13:36:19:718 -> 2431
13:36:19:729 -> 2194
13:36:19:739 -> 2126
13:36:19:749 -> 1773
13:36:19:759 -> 2272
13:36:19:769 -> 1715
13:36:19:779 -> 1815
13:36:19:789 -> 2387
13:36:19:799 -> 2249
13:36:19:810 -> 2021
13:36:19:819 -> 2516
13:36:19:829 -> 1764
13:36:19:839 -> 2238
13:36:19:849 -> 2025
13:36:19:859 -> 2121
13:36:19:898 -> 2090
13:36:19:899 -> 2105
13:36:19:899 -> 2076
13:36:19:899 -> 1997
13:36:19:909 -> 2069
13:36:19:920 -> 2058
13:36:19:929 -> 2091
13:36:19:940 -> 2061
13:36:19:950 -> 2124
13:36:19:961 -> 2057
13:36:19:977 -> 2139
13:36:19:985 -> 1975
13:36:19:990 -> 2145
13:36:20:000 -> 2007
13:36:20:013 -> 2186
13:36:20:020 -> 1999
13:36:20:030 -> 2198
13:36:20:040 -> 1938
13:36:20:050 -> 2184
13:36:20:065 -> 1959
13:36:20:070 -> 2126
13:36:20:084 -> 2014
13:36:20:090 -> 2133
13:36:20:101 -> 2025
13:36:20:110 -> 2109
13:36:20:120 -> 2043
13:36:20:131 -> 2104
13:36:20:140 -> 2068
13:36:20:150 -> 2105
13:36:20:161 -> 2100
13:36:20:171 -> 2095
13:36:20:181 -> 2103
13:36:20:191 -> 2075
13:36:20:201 -> 2078
13:36:20:211 -> 2112
13:36:20:221 -> 2075
13:36:20:231 -> 2100
13:36:20:241 -> 2085
13:36:20:251 -> 2096
13:36:20:261 -> 2072
13:36:20:271 -> 2086
13:36:20:285 -> 2092
13:36:20:291 -> 2083
13:36:20:314 -> 2121
13:36:20:315 -> 2062
13:36:20:323 -> 2092
13:36:20:331 -> 2099
13:36:20:341 -> 2058
13:36:20:351 -> 2143
13:36:20:361 -> 2029
13:36:20:371 -> 2075
13:36:20:381 -> 2081
13:36:20:393 -> 2160
13:36:20:435 -> 2038
13:36:20:437 -> 2126
13:36:20:437 -> 2045
13:36:20:437 -> 2058
13:36:20:443 -> 2047
13:36:20:452 -> 2106
13:36:20:462 -> 2025
13:36:20:472 -> 2098
13:36:20:482 -> 2040
13:36:20:493 -> 2028
13:36:20:502 -> 2039
13:36:20:512 -> 2112
13:36:20:522 -> 2040
13:36:20:532 -> 2117
13:36:20:552 -> 2038
13:36:20:554 -> 2111
13:36:20:563 -> 2017
13:36:20:573 -> 2128
13:36:20:583 -> 2036
13:36:20:593 -> 2147
13:36:20:603 -> 1996
13:36:20:613 -> 2090
13:36:20:623 -> 1987
13:36:20:633 -> 2151
13:36:20:644 -> 1982
13:36:20:653 -> 2133
13:36:20:663 -> 1969
13:36:20:673 -> 2158
13:36:20:683 -> 1961
13:36:20:693 -> 2168
13:36:20:703 -> 1938
13:36:20:713 -> 2131
13:36:20:723 -> 1967
13:36:20:733 -> 2174
13:36:20:743 -> 1981
13:36:20:753 -> 2183
13:36:20:769 -> 1957
13:36:20:773 -> 2157
13:36:20:786 -> 1992
13:36:20:793 -> 2169
13:36:20:803 -> 1977
13:36:20:813 -> 2182
13:36:20:823 -> 1959
13:36:20:835 -> 2200
13:36:20:844 -> 1990
13:36:20:854 -> 2217
13:36:20:864 -> 1995
13:36:20:874 -> 2175
13:36:20:884 -> 1936
13:36:20:894 -> 2240
13:36:20:924 -> 1951
13:36:20:926 -> 2239
13:36:20:926 -> 1971
13:36:20:995 -> 2265
13:36:21:010 -> 1954
13:36:21:010 -> 2268
13:36:21:010 -> 1973
13:36:21:010 -> 2253
13:36:21:010 -> 1913
13:36:21:010 -> 2270
13:36:21:010 -> 1933
13:36:21:049 -> 2267
13:36:21:049 -> 1935
13:36:21:049 -> 2276
13:36:21:088 -> 1929
13:36:21:088 -> 2248
13:36:21:088 -> 1911
13:36:21:088 -> 2257
13:36:21:088 -> 1940
13:36:21:096 -> 2248
13:36:21:125 -> 1972
13:36:21:125 -> 2214
13:36:21:125 -> 1946
13:36:21:136 -> 2206
13:36:21:145 -> 1955
13:36:21:155 -> 2148
13:36:21:165 -> 1941
13:36:21:180 -> 2216
13:36:21:185 -> 1936
13:36:21:196 -> 2165
13:36:21:206 -> 1928
13:36:21:216 -> 2162
13:36:21:225 -> 1890
13:36:21:235 -> 2158
13:36:21:247 -> 1946
13:36:21:255 -> 2138
13:36:21:267 -> 1944
13:36:21:280 -> 2153
13:36:21:286 -> 1943
13:36:21:296 -> 2145
13:36:21:308 -> 1991
13:36:21:316 -> 2122
13:36:21:326 -> 1969
13:36:21:336 -> 2158
13:36:21:345 -> 1962
13:36:21:356 -> 2168
13:36:21:366 -> 1995
13:36:21:376 -> 2159
13:36:21:386 -> 1982
13:36:21:396 -> 2152
13:36:21:406 -> 2009
13:36:21:416 -> 2179
13:36:21:426 -> 1948
13:36:21:436 -> 2123
13:36:21:446 -> 1980
13:36:21:456 -> 2160
13:36:21:467 -> 2000
13:36:21:484 -> 2124
13:36:21:486 -> 2026
13:36:21:526 -> 2124
13:36:21:527 -> 2012
13:36:21:527 -> 2090
13:36:21:527 -> 2029
13:36:21:536 -> 2136
13:36:21:546 -> 2028
13:36:21:556 -> 2137
13:36:21:566 -> 2015
13:36:21:577 -> 2144
13:36:21:587 -> 2080
13:36:21:598 -> 2131
13:36:21:607 -> 2034
13:36:21:617 -> 2145
13:36:21:627 -> 2017
13:36:21:637 -> 2181
13:36:21:647 -> 1911
13:36:21:657 -> 2144
13:36:21:667 -> 2044
13:36:21:677 -> 2174
13:36:21:690 -> 2101
13:36:21:697 -> 2084
13:36:21:707 -> 2121
13:36:21:717 -> 2143
13:36:21:727 -> 2155
13:36:21:738 -> 2081
13:36:21:747 -> 2122
13:36:21:757 -> 2114
13:36:21:767 -> 1946
13:36:21:777 -> 2111
13:36:21:787 -> 2143
13:36:21:797 -> 2053
13:36:21:808 -> 2054
13:36:21:817 -> 2184
13:36:21:827 -> 2043
13:36:21:838 -> 2267
13:36:21:848 -> 2132
13:36:21:858 -> 2155
13:36:21:878 -> 2117
13:36:21:881 -> 1968
13:36:21:888 -> 1850
13:36:21:898 -> 1564
13:36:21:908 -> 2060
13:36:21:918 -> 2070
13:36:21:929 -> 2210
13:36:21:938 -> 2160
13:36:21:948 -> 1848
13:36:21:961 -> 2328
13:36:21:968 -> 2023
13:36:21:979 -> 2216
13:36:21:988 -> 2153
13:36:21:999 -> 2117
13:36:22:010 -> 1952
13:36:22:018 -> 1908
13:36:22:057 -> 2082
13:36:22:060 -> 2105
13:36:22:060 -> 2015
13:36:22:073 -> 2106
13:36:22:073 -> 2488
13:36:22:095 -> 2075
13:36:22:095 -> 2271
13:36:22:108 -> 1848
13:36:22:134 -> 1996
13:36:22:134 -> 2000
13:36:22:134 -> 2371
13:36:22:151 -> 1915
13:36:22:151 -> 2348
13:36:22:159 -> 1802
13:36:22:170 -> 2079
13:36:22:186 -> 1917
13:36:22:189 -> 2010
13:36:22:199 -> 2040
13:36:22:209 -> 2120
13:36:22:219 -> 2009
13:36:22:229 -> 2529
13:36:22:239 -> 2099
13:36:22:249 -> 2448
13:36:22:260 -> 2173
13:36:22:270 -> 2232
13:36:22:279 -> 2086
13:36:22:289 -> 2099
13:36:22:300 -> 2179
13:36:22:310 -> 2141
13:36:22:320 -> 2396
13:36:22:330 -> 1917
13:36:22:340 -> 2369
13:36:22:350 -> 1873
13:36:22:360 -> 1917
13:36:22:370 -> 2175
13:36:22:380 -> 2332
13:36:22:390 -> 2017
13:36:22:401 -> 1729
13:36:22:410 -> 2137
13:36:22:420 -> 2001
13:36:22:430 -> 2239
13:36:22:440 -> 2074
13:36:22:450 -> 2205
13:36:22:460 -> 2282
13:36:22:470 -> 1972
13:36:22:480 -> 1864
13:36:22:491 -> 2078
13:36:22:500 -> 2266
13:36:22:510 -> 2259
13:36:22:520 -> 1778
13:36:22:531 -> 2017
13:36:22:541 -> 1921
13:36:22:551 -> 2094
13:36:22:586 -> 1781
13:36:22:590 -> 2109
13:36:22:590 -> 1726
13:36:22:591 -> 2133
13:36:22:602 -> 2067
13:36:22:611 -> 2052
13:36:22:621 -> 1899
13:36:22:631 -> 2144
13:36:22:641 -> 1955
13:36:22:651 -> 2107
13:36:22:661 -> 2181
13:36:22:671 -> 1906
13:36:22:681 -> 2046
13:36:22:691 -> 2407
13:36:22:701 -> 1997
13:36:22:711 -> 2055
13:36:22:721 -> 1974
13:36:22:731 -> 2134
13:36:22:742 -> 2045
13:36:22:751 -> 2033
13:36:22:762 -> 2208
13:36:22:772 -> 2164
13:36:22:782 -> 1907
13:36:22:792 -> 2218
13:36:22:802 -> 2041
13:36:22:812 -> 2057
13:36:22:822 -> 1874
13:36:22:832 -> 2010
13:36:22:843 -> 2039
13:36:22:852 -> 2299
13:36:22:865 -> 1921
13:36:22:872 -> 2169
13:36:22:882 -> 2069
13:36:22:893 -> 1922
13:36:22:902 -> 2171
13:36:22:912 -> 2235
13:36:22:922 -> 1782
13:36:22:932 -> 2226
13:36:22:943 -> 1767
13:36:22:952 -> 2085
13:36:22:962 -> 1907
13:36:22:973 -> 2140
13:36:22:983 -> 2013
13:36:22:993 -> 2181
13:36:23:003 -> 2095
13:36:23:013 -> 2160
13:36:23:023 -> 1877
13:36:23:033 -> 2331
13:36:23:043 -> 1752
13:36:23:054 -> 2502
13:36:23:063 -> 1692
13:36:23:073 -> 2166
13:36:23:083 -> 2149
13:36:23:135 -> 2346
13:36:23:136 -> 1731
13:36:23:136 -> 2128
13:36:23:136 -> 2023
13:36:23:136 -> 2190
13:36:23:143 -> 2116
13:36:23:153 -> 2237
13:36:23:163 -> 1886
13:36:23:174 -> 2221
13:36:23:183 -> 2035
13:36:23:193 -> 2387
13:36:23:204 -> 1778
13:36:23:214 -> 2226
13:36:23:224 -> 1964
13:36:23:234 -> 2253
13:36:23:244 -> 1955
13:36:23:254 -> 2281
13:36:23:264 -> 1861
13:36:23:274 -> 2274
13:36:23:284 -> 2048
13:36:23:294 -> 2225
13:36:23:304 -> 2010
13:36:23:314 -> 1985
13:36:23:326 -> 1996
13:36:23:334 -> 2199
13:36:23:344 -> 1936
13:36:23:354 -> 2196
13:36:23:364 -> 1945
13:36:23:374 -> 2200
13:36:23:384 -> 1961
13:36:23:395 -> 2212
13:36:23:404 -> 1950
13:36:23:414 -> 2181
13:36:23:437 -> 1965
13:36:23:439 -> 2196
13:36:23:445 -> 1943
13:36:23:455 -> 2179
13:36:23:465 -> 1959
13:36:23:475 -> 2158
13:36:23:485 -> 1967
13:36:23:495 -> 2133
13:36:23:505 -> 1929
13:36:23:515 -> 2147
13:36:23:526 -> 1992
13:36:23:535 -> 2133
13:36:23:545 -> 1966
13:36:23:555 -> 2146
13:36:23:565 -> 1981
13:36:23:575 -> 2082
13:36:23:585 -> 1999
13:36:23:595 -> 2087
13:36:23:606 -> 2009
13:36:23:615 -> 2102
13:36:23:625 -> 2009
13:36:23:680 -> 2118
13:36:23:683 -> 2008
13:36:23:683 -> 2091
13:36:23:683 -> 2011
13:36:23:683 -> 2130
13:36:23:686 -> 2045
13:36:23:696 -> 2118
13:36:23:707 -> 2055
13:36:23:716 -> 2139
13:36:23:726 -> 2052
13:36:23:736 -> 2116
13:36:23:746 -> 2060
13:36:23:756 -> 2128
13:36:23:766 -> 2007
13:36:23:776 -> 2132
13:36:23:786 -> 2102
13:36:23:796 -> 2087
13:36:23:806 -> 2061
13:36:23:816 -> 2138
13:36:23:826 -> 2062
13:36:23:836 -> 2100
13:36:23:846 -> 2076
13:36:23:856 -> 2097
13:36:23:874 -> 2086
13:36:23:876 -> 2100
13:36:23:887 -> 2083
13:36:23:897 -> 2124
13:36:23:910 -> 2078
13:36:23:922 -> 2103
13:36:23:936 -> 2093
13:36:23:937 -> 2100
13:36:23:947 -> 2090
13:36:23:976 -> 2073
13:36:23:976 -> 2089
13:36:24:000 -> 2089
13:36:24:000 -> 2092
13:36:24:000 -> 2097
13:36:24:007 -> 2079
13:36:24:033 -> 2081
13:36:24:033 -> 2074
13:36:24:037 -> 2092
13:36:24:048 -> 2116
13:36:24:057 -> 2064
13:36:24:067 -> 2098
13:36:24:078 -> 2059
13:36:24:088 -> 2087
13:36:24:100 -> 2060
13:36:24:108 -> 2088
13:36:24:118 -> 2082
13:36:24:128 -> 2116
13:36:24:138 -> 2062
13:36:24:148 -> 2101
13:36:24:158 -> 2058
13:36:24:168 -> 2119
13:36:24:221 -> 2042
13:36:24:224 -> 2097
13:36:24:224 -> 2079
13:36:24:224 -> 2101
13:36:24:224 -> 2031
13:36:24:228 -> 2118
13:36:24:238 -> 2006
13:36:24:248 -> 2168
13:36:24:259 -> 2014
13:36:24:268 -> 2151
13:36:24:278 -> 2002
13:36:24:288 -> 2160
13:36:24:298 -> 1994
13:36:24:309 -> 2152
13:36:24:318 -> 2011
13:36:24:329 -> 2161
13:36:24:339 -> 2041
13:36:24:349 -> 2126
13:36:24:360 -> 2056
13:36:24:369 -> 2100
13:36:24:379 -> 2040
13:36:24:389 -> 2092
13:36:24:399 -> 2046
13:36:24:409 -> 2093
13:36:24:419 -> 2088
13:36:24:429 -> 2095
13:36:24:439 -> 2071
13:36:24:449 -> 2081
13:36:24:459 -> 2081
13:36:24:469 -> 2079
13:36:24:488 -> 2088
13:36:24:490 -> 2089
13:36:24:499 -> 2069
13:36:24:511 -> 2098
13:36:24:519 -> 2076
13:36:24:529 -> 2077
13:36:24:539 -> 2092
13:36:24:549 -> 2079
13:36:24:560 -> 2108
13:36:24:570 -> 2086
13:36:24:580 -> 2091
13:36:24:589 -> 2096
13:36:24:600 -> 2056
13:36:24:611 -> 2124
13:36:24:620 -> 2078
13:36:24:630 -> 2116
13:36:24:640 -> 2063
13:36:24:650 -> 2145
13:36:24:660 -> 2055
13:36:24:670 -> 2154
13:36:24:680 -> 2037
13:36:24:690 -> 2129
13:36:24:700 -> 2045
13:36:24:716 -> 2121
13:36:24:757 -> 2068
13:36:24:763 -> 2133
13:36:24:763 -> 2106
13:36:24:763 -> 2136
13:36:24:763 -> 2071
13:36:24:770 -> 2080
13:36:24:781 -> 2063
13:36:24:790 -> 2073
13:36:24:800 -> 2060
13:36:24:811 -> 2114
13:36:24:821 -> 1997
13:36:24:831 -> 2161
13:36:24:841 -> 1941
13:36:24:851 -> 2096
13:36:24:861 -> 2024
13:36:24:871 -> 2145
13:36:24:881 -> 1942
13:36:24:891 -> 2176
13:36:24:901 -> 1941
13:36:24:911 -> 2109
13:36:24:921 -> 1998
13:36:24:931 -> 2139
13:36:24:951 -> 1996
13:36:24:952 -> 2164
13:36:24:961 -> 1976
13:36:24:971 -> 2227
13:36:24:981 -> 1857
13:36:24:993 -> 2141
13:36:25:001 -> 2023
13:36:25:011 -> 2067
13:36:25:022 -> 2058
13:36:25:032 -> 2123
13:36:25:042 -> 2045
13:36:25:052 -> 2115
13:36:25:063 -> 1908
13:36:25:072 -> 1969
13:36:25:082 -> 2103
13:36:25:092 -> 2157
13:36:25:102 -> 1944
13:36:25:112 -> 2260
13:36:25:122 -> 1893
13:36:25:132 -> 2264
13:36:25:142 -> 2123
13:36:25:152 -> 2105
13:36:25:162 -> 2021
13:36:25:178 -> 2125
13:36:25:182 -> 1791
13:36:25:192 -> 1988
13:36:25:203 -> 1869
13:36:25:215 -> 2206
13:36:25:222 -> 1866
13:36:25:232 -> 2193
13:36:25:242 -> 1703
13:36:25:253 -> 2722
13:36:25:293 -> 1697
13:36:25:294 -> 2521
13:36:25:294 -> 1893
13:36:25:294 -> 2311
13:36:25:303 -> 1859
13:36:25:313 -> 1979
13:36:25:323 -> 1940
13:36:25:333 -> 1808
13:36:25:343 -> 1901
13:36:25:353 -> 2419
13:36:25:363 -> 1980
13:36:25:373 -> 2419
13:36:25:383 -> 1938
13:36:25:393 -> 2265
13:36:25:403 -> 2055
13:36:25:413 -> 2350
13:36:25:423 -> 1672
13:36:25:434 -> 2364
13:36:25:443 -> 2200
13:36:25:464 -> 2672
13:36:25:469 -> 2288
13:36:25:478 -> 2098
13:36:25:484 -> 1831
13:36:25:503 -> 2111
13:36:25:506 -> 2077
13:36:25:514 -> 2141
13:36:25:524 -> 1929
13:36:25:534 -> 2112
13:36:25:544 -> 1748
13:36:25:554 -> 2307
13:36:25:564 -> 1953
13:36:25:576 -> 2046
13:36:25:584 -> 1925
13:36:25:594 -> 2218
13:36:25:604 -> 2111
13:36:25:614 -> 2079
13:36:25:624 -> 2032
13:36:25:634 -> 2134
13:36:25:644 -> 1996
13:36:25:654 -> 2060
13:36:25:664 -> 1872
13:36:25:674 -> 2167
13:36:25:684 -> 1705
13:36:25:694 -> 1943
13:36:25:704 -> 2087
13:36:25:714 -> 1976
13:36:25:725 -> 1965
13:36:25:734 -> 1906
13:36:25:745 -> 1916
13:36:25:755 -> 2163
13:36:25:765 -> 1955
13:36:25:775 -> 1908
13:36:25:785 -> 2072
13:36:25:820 -> 1940
13:36:25:821 -> 1897
13:36:25:821 -> 1863
13:36:25:825 -> 2178
13:36:25:835 -> 1958
13:36:25:845 -> 1955
13:36:25:855 -> 2001
13:36:25:865 -> 2148
13:36:25:907 -> 2185
13:36:25:917 -> 2068
13:36:25:917 -> 1879
13:36:25:917 -> 2007
13:36:25:917 -> 2034
13:36:25:952 -> 2090
13:36:25:952 -> 2009
13:36:25:952 -> 2210
13:36:25:958 -> 2146
13:36:25:987 -> 1878
13:36:25:987 -> 2193
13:36:25:987 -> 2089
13:36:25:996 -> 1902
13:36:26:016 -> 2160
13:36:26:018 -> 2116
13:36:26:026 -> 2380
13:36:26:036 -> 1946
13:36:26:046 -> 2097
13:36:26:056 -> 2106
13:36:26:066 -> 2138
13:36:26:076 -> 2176
13:36:26:086 -> 2265
13:36:26:096 -> 2042
13:36:26:106 -> 2088
13:36:26:116 -> 2104
13:36:26:126 -> 2003
13:36:26:136 -> 2200
13:36:26:147 -> 1925
13:36:26:162 -> 2207
13:36:26:166 -> 2179
13:36:26:176 -> 2156
13:36:26:187 -> 2263
13:36:26:196 -> 2096
13:36:26:207 -> 1949
13:36:26:217 -> 2117
13:36:26:227 -> 2302
13:36:26:237 -> 2032
13:36:26:247 -> 2376
13:36:26:257 -> 2035
13:36:26:267 -> 2176
13:36:26:278 -> 1894
13:36:26:287 -> 1980
13:36:26:297 -> 2094
13:36:26:315 -> 2348
13:36:26:348 -> 2234
13:36:26:352 -> 1948
13:36:26:352 -> 2052
13:36:26:352 -> 2275
13:36:26:357 -> 1912
13:36:26:367 -> 2280
13:36:26:378 -> 2031
13:36:26:387 -> 2119
13:36:26:398 -> 2088
13:36:26:407 -> 2647
13:36:26:417 -> 2195
13:36:26:428 -> 2116
13:36:26:438 -> 2083
13:36:26:448 -> 2289
13:36:26:458 -> 2077
13:36:26:468 -> 2466
13:36:26:478 -> 1976
13:36:26:488 -> 2102
13:36:26:498 -> 2307
13:36:26:509 -> 2095
13:36:26:518 -> 1890
13:36:26:528 -> 2078
13:36:26:538 -> 1881
13:36:26:548 -> 2143
13:36:26:559 -> 2071
13:36:26:568 -> 2098
13:36:26:578 -> 2134
13:36:26:588 -> 2128
13:36:26:598 -> 2071
13:36:26:608 -> 2094
13:36:26:618 -> 1970
13:36:26:628 -> 2058
13:36:26:638 -> 2191
13:36:26:648 -> 2004
13:36:26:659 -> 2122
13:36:26:669 -> 2137
13:36:26:679 -> 2169
13:36:26:689 -> 2151
13:36:26:699 -> 2063
13:36:26:718 -> 2016
13:36:26:721 -> 2096
13:36:26:729 -> 1954
13:36:26:739 -> 2095
13:36:26:749 -> 2128
13:36:26:761 -> 2064
13:36:26:769 -> 1991
13:36:26:779 -> 2064
13:36:26:790 -> 2111
13:36:26:799 -> 1980
13:36:26:810 -> 2112
13:36:26:819 -> 2041
13:36:26:829 -> 2110
13:36:26:840 -> 2046
13:36:26:881 -> 2081
13:36:26:883 -> 2045
13:36:26:883 -> 2066
13:36:26:883 -> 2071
13:36:26:890 -> 2048
13:36:26:900 -> 2043
13:36:26:910 -> 2104
13:36:26:920 -> 2056
13:36:26:930 -> 2098
13:36:26:940 -> 2010
13:36:26:950 -> 2095
13:36:26:960 -> 2093
13:36:26:970 -> 2120
13:36:26:980 -> 2023
13:36:26:990 -> 2159
13:36:27:000 -> 2026
13:36:27:010 -> 2167
13:36:27:020 -> 1997
13:36:27:030 -> 2167
13:36:27:040 -> 2003
13:36:27:050 -> 2162
13:36:27:061 -> 1925
13:36:27:070 -> 2138
13:36:27:080 -> 1998
13:36:27:091 -> 2163
13:36:27:100 -> 2007
13:36:27:114 -> 2158
13:36:27:121 -> 1990
13:36:27:131 -> 2158
13:36:27:143 -> 1954
13:36:27:151 -> 2161
13:36:27:161 -> 2069
13:36:27:171 -> 2176
13:36:27:181 -> 1995
13:36:27:191 -> 2146
13:36:27:201 -> 1975
13:36:27:211 -> 2166
13:36:27:221 -> 1978
13:36:27:231 -> 2192
13:36:27:241 -> 1990
13:36:27:251 -> 2142
13:36:27:261 -> 1953
13:36:27:271 -> 2233
13:36:27:281 -> 1957
13:36:27:292 -> 2139
13:36:27:301 -> 1962
13:36:27:311 -> 2193
13:36:27:322 -> 1940
13:36:27:332 -> 2224
13:36:27:350 -> 1933
13:36:27:352 -> 2223
13:36:27:362 -> 1944
13:36:27:372 -> 2253
13:36:27:402 -> 1941
13:36:27:403 -> 2243
13:36:27:403 -> 1955
13:36:27:412 -> 2213
13:36:27:423 -> 1894
13:36:27:432 -> 2260
13:36:27:442 -> 1923
13:36:27:452 -> 2207
13:36:27:463 -> 1876
13:36:27:472 -> 2221
13:36:27:482 -> 1918
13:36:27:493 -> 2196
13:36:27:502 -> 1961
13:36:27:512 -> 2192
13:36:27:535 -> 1937
13:36:27:538 -> 2191
13:36:27:543 -> 1950
13:36:27:553 -> 2181
13:36:27:563 -> 1921
13:36:27:574 -> 2221
13:36:27:583 -> 1929
13:36:27:593 -> 2174
13:36:27:603 -> 1950
13:36:27:613 -> 2165
13:36:27:625 -> 1957
13:36:27:660 -> 2180
13:36:27:660 -> 1953
13:36:27:660 -> 2117
13:36:27:693 -> 1942
13:36:27:693 -> 2144
13:36:27:693 -> 1963
13:36:27:693 -> 2087
13:36:27:703 -> 1963
13:36:27:744 -> 2175
13:36:27:744 -> 1963
13:36:27:744 -> 2158
13:36:27:744 -> 1973
13:36:27:755 -> 2176
13:36:27:763 -> 2017
13:36:27:774 -> 2161
13:36:27:784 -> 2002
13:36:27:794 -> 2178
13:36:27:804 -> 2021
13:36:27:814 -> 2149
13:36:27:824 -> 2034
13:36:27:834 -> 2152
13:36:27:844 -> 2015
13:36:27:854 -> 2141
13:36:27:864 -> 2023
13:36:27:877 -> 2122
13:36:27:884 -> 2051
13:36:27:894 -> 2161
13:36:27:932 -> 2017
13:36:27:934 -> 2110
13:36:27:934 -> 2028
13:36:27:934 -> 2150
13:36:27:944 -> 2028
13:36:27:954 -> 2150
13:36:27:964 -> 2038
13:36:27:975 -> 2136
13:36:27:985 -> 2044
13:36:27:995 -> 2177
13:36:28:005 -> 2059
13:36:28:015 -> 2117
13:36:28:027 -> 2072
13:36:28:035 -> 2124
13:36:28:045 -> 2046
13:36:28:055 -> 2137
13:36:28:065 -> 2051
13:36:28:075 -> 2151
13:36:28:085 -> 1976
13:36:28:095 -> 2092
13:36:28:105 -> 2036
13:36:28:115 -> 2084
13:36:28:125 -> 2028
13:36:28:135 -> 2095
13:36:28:145 -> 2110
13:36:28:155 -> 2006
13:36:28:165 -> 2059
13:36:28:176 -> 2200
13:36:28:193 -> 2072
13:36:28:197 -> 2051
13:36:28:206 -> 2036
13:36:28:216 -> 2018
13:36:28:227 -> 2070
13:36:28:236 -> 2003
13:36:28:246 -> 2048
13:36:28:256 -> 2125
13:36:28:266 -> 2046
13:36:28:276 -> 2013
13:36:28:286 -> 2073
13:36:28:296 -> 2050
13:36:28:306 -> 2024
13:36:28:316 -> 1988
13:36:28:326 -> 2199
13:36:28:336 -> 2084
13:36:28:346 -> 2085
13:36:28:356 -> 2067
13:36:28:366 -> 2008
13:36:28:376 -> 2006
13:36:28:386 -> 2014
13:36:28:396 -> 1946
13:36:28:406 -> 2089
13:36:28:416 -> 1925
13:36:28:456 -> 2271
13:36:28:457 -> 2038
13:36:28:457 -> 2130
13:36:28:457 -> 1973
13:36:28:467 -> 2252
13:36:28:477 -> 1951
13:36:28:487 -> 2249
13:36:28:497 -> 1979
13:36:28:507 -> 2062
13:36:28:517 -> 2070
13:36:28:527 -> 2163
13:36:28:537 -> 1977
13:36:28:547 -> 2096
13:36:28:557 -> 1912
13:36:28:567 -> 2133
13:36:28:577 -> 1648
13:36:28:589 -> 2191
13:36:28:597 -> 2179
13:36:28:607 -> 2098
13:36:28:617 -> 2258
13:36:28:628 -> 2185
13:36:28:637 -> 1958
13:36:28:648 -> 2021
13:36:28:666 -> 1882
13:36:28:668 -> 2290
13:36:28:678 -> 1933
13:36:28:688 -> 2362
13:36:28:698 -> 1801
13:36:28:708 -> 2145
13:36:28:718 -> 2003
13:36:28:728 -> 2195
13:36:28:738 -> 2221
13:36:28:748 -> 2258
13:36:28:758 -> 2301
13:36:28:768 -> 2280
13:36:28:778 -> 2192
13:36:28:788 -> 1519
13:36:28:799 -> 2113
13:36:28:808 -> 2126
13:36:28:818 -> 2160
13:36:28:828 -> 2268
13:36:28:838 -> 2159
13:36:28:848 -> 2074
13:36:28:860 -> 2110
13:36:28:868 -> 2722
13:36:28:879 -> 2029
13:36:28:889 -> 1916
13:36:28:899 -> 2074
13:36:28:909 -> 1956
13:36:28:919 -> 2257
13:36:28:929 -> 1908
13:36:28:939 -> 1477
13:36:28:949 -> 2048
13:36:28:980 -> 1651
13:36:28:981 -> 2281
13:36:28:981 -> 2117
13:36:28:989 -> 2365
13:36:28:999 -> 2042
13:36:29:009 -> 2228
13:36:29:019 -> 2014
13:36:29:029 -> 2465
13:36:29:039 -> 2234
13:36:29:049 -> 2269
13:36:29:059 -> 2160
13:36:29:077 -> 2092
13:36:29:097 -> 2384
13:36:29:097 -> 1938
13:36:29:133 -> 2228
13:36:29:133 -> 2218
13:36:29:133 -> 1985
13:36:29:133 -> 2159
13:36:29:152 -> 1933
13:36:29:152 -> 2338
13:36:29:168 -> 2124
13:36:29:187 -> 2177
13:36:29:187 -> 2062
13:36:29:200 -> 1981
13:36:29:200 -> 2304
13:36:29:210 -> 2271
13:36:29:220 -> 1958
13:36:29:231 -> 1954
13:36:29:240 -> 2113
13:36:29:253 -> 2233
13:36:29:266 -> 1883
13:36:29:270 -> 2014
13:36:29:280 -> 1998
13:36:29:291 -> 1873
13:36:29:300 -> 2017
13:36:29:311 -> 2007
13:36:29:321 -> 1972
13:36:29:331 -> 2184
13:36:29:341 -> 2045
13:36:29:351 -> 2044
13:36:29:361 -> 2031
13:36:29:371 -> 2355
13:36:29:381 -> 1876
13:36:29:391 -> 2284
13:36:29:401 -> 2102
13:36:29:411 -> 2211
13:36:29:421 -> 1982
13:36:29:431 -> 2252
13:36:29:441 -> 1999
13:36:29:451 -> 2192
13:36:29:462 -> 2033
13:36:29:472 -> 2339
13:36:29:508 -> 1777
13:36:29:510 -> 2287
13:36:29:510 -> 2032
13:36:29:511 -> 2053
13:36:29:521 -> 2196
13:36:29:531 -> 2234
13:36:29:542 -> 2073
13:36:29:552 -> 2356
13:36:29:562 -> 1920
13:36:29:572 -> 2342
13:36:29:582 -> 2131
13:36:29:594 -> 2104
13:36:29:602 -> 1725
13:36:29:612 -> 2011
13:36:29:622 -> 2173
13:36:29:632 -> 2119
13:36:29:642 -> 1889
13:36:29:652 -> 2125
13:36:29:663 -> 1769
13:36:29:672 -> 2511
13:36:29:682 -> 1693
13:36:29:692 -> 2058
13:36:29:702 -> 1844
13:36:29:714 -> 2078
13:36:29:722 -> 1937
13:36:29:732 -> 2133
13:36:29:742 -> 1879
13:36:29:752 -> 2178
13:36:29:762 -> 1858
13:36:29:773 -> 2396
13:36:29:783 -> 1826
13:36:29:793 -> 2043
13:36:29:803 -> 1853
13:36:29:813 -> 2248
13:36:29:823 -> 2102
13:36:29:833 -> 1818
13:36:29:844 -> 1992
13:36:29:853 -> 2309
13:36:29:863 -> 2151
13:36:29:873 -> 2147
13:36:29:883 -> 1866
13:36:29:902 -> 2248
13:36:29:905 -> 1933
13:36:29:913 -> 2146
13:36:29:923 -> 1968
13:36:29:933 -> 2218
13:36:29:943 -> 2002
13:36:29:953 -> 2202
13:36:29:963 -> 2061
13:36:29:973 -> 2087
13:36:29:983 -> 2021
13:36:29:994 -> 2132
13:36:30:003 -> 2006
13:36:30:039 -> 2150
13:36:30:044 -> 2050
13:36:30:044 -> 2138
13:36:30:044 -> 2035
13:36:30:054 -> 2147
13:36:30:064 -> 2075
13:36:30:074 -> 2128
13:36:30:084 -> 2014
13:36:30:094 -> 2137
13:36:30:104 -> 2075
13:36:30:114 -> 2130
13:36:30:124 -> 2057
13:36:30:134 -> 2126
13:36:30:145 -> 2084
13:36:30:154 -> 2128
13:36:30:172 -> 1996
13:36:30:174 -> 2152
13:36:30:184 -> 2057
13:36:30:197 -> 2130
13:36:30:204 -> 2077
13:36:30:214 -> 2129
13:36:30:225 -> 2071
13:36:30:234 -> 2041
13:36:30:244 -> 2050
13:36:30:255 -> 2126
13:36:30:265 -> 2103
13:36:30:275 -> 2096
13:36:30:285 -> 2087
13:36:30:296 -> 2080
13:36:30:305 -> 2105
13:36:30:315 -> 2077
13:36:30:325 -> 2087
13:36:30:335 -> 2079
13:36:30:345 -> 2089
13:36:30:355 -> 2089
13:36:30:365 -> 2086
13:36:30:375 -> 2089
13:36:30:385 -> 2083
13:36:30:401 -> 2075
13:36:30:412 -> 2106
13:36:30:415 -> 2086
13:36:30:425 -> 2097
13:36:30:436 -> 2080
13:36:30:445 -> 2104
13:36:30:455 -> 2048
13:36:30:465 -> 2109
13:36:30:476 -> 2074
13:36:30:486 -> 2101
13:36:30:496 -> 2079
13:36:30:506 -> 2104
13:36:30:516 -> 2048
13:36:30:526 -> 2115
13:36:30:569 -> 2125
13:36:30:536 -> 2057
13:36:30:570 -> 2008
13:36:30:570 -> 2136
13:36:30:577 -> 2004
13:36:30:586 -> 2158
13:36:30:597 -> 1992
13:36:30:606 -> 2163
13:36:30:616 -> 1987
13:36:30:626 -> 2142
13:36:30:636 -> 1984
13:36:30:649 -> 2129
13:36:30:656 -> 2000
13:36:30:667 -> 2124
13:36:30:677 -> 2031
13:36:30:686 -> 2121
13:36:30:697 -> 2047
13:36:30:707 -> 2101
13:36:30:717 -> 2059
13:36:30:727 -> 2101
13:36:30:737 -> 2076
13:36:30:747 -> 2096
13:36:30:757 -> 2086
13:36:30:767 -> 2105
13:36:30:777 -> 2070
13:36:30:787 -> 2105
13:36:30:804 -> 2087
13:36:30:824 -> 2104
13:36:30:824 -> 2082
13:36:30:832 -> 2107
13:36:30:859 -> 2099
13:36:30:859 -> 2108
13:36:30:859 -> 2099
13:36:30:867 -> 2105
13:36:30:897 -> 2087
13:36:30:902 -> 2086
13:36:30:902 -> 2105
13:36:30:910 -> 2105
13:36:30:918 -> 2077
13:36:30:928 -> 2112
13:36:30:938 -> 2061
13:36:30:948 -> 2133
13:36:30:958 -> 2031
13:36:30:968 -> 2133
13:36:30:979 -> 2027
13:36:30:988 -> 2125
13:36:30:998 -> 2011
13:36:31:008 -> 2127
13:36:31:018 -> 2028
13:36:31:028 -> 2129
13:36:31:039 -> 2044
13:36:31:048 -> 2112
13:36:31:058 -> 2036
13:36:31:091 -> 2092
13:36:31:092 -> 2049
13:36:31:092 -> 2091
13:36:31:098 -> 2033
13:36:31:108 -> 2079
13:36:31:118 -> 1999
13:36:31:129 -> 2105
13:36:31:139 -> 1993
13:36:31:149 -> 2118
13:36:31:160 -> 1991
13:36:31:169 -> 2119
13:36:31:194 -> 1979
13:36:31:197 -> 2119
13:36:31:199 -> 1983
13:36:31:209 -> 2122
13:36:31:220 -> 1980
13:36:31:229 -> 2113
13:36:31:240 -> 1949
13:36:31:249 -> 2166
13:36:31:260 -> 1974
13:36:31:270 -> 2138
13:36:31:280 -> 1958
13:36:31:289 -> 2142
13:36:31:301 -> 1972
13:36:31:310 -> 2126
13:36:31:320 -> 2008
13:36:31:330 -> 2135
13:36:31:340 -> 2004
13:36:31:349 -> 2200
13:36:31:360 -> 2019
13:36:31:370 -> 2143
13:36:31:380 -> 1986
13:36:31:390 -> 2168
13:36:31:400 -> 1921
13:36:31:410 -> 2296
13:36:31:420 -> 1910
13:36:31:431 -> 2209
13:36:31:440 -> 1797
13:36:31:450 -> 2170
13:36:31:470 -> 1982
13:36:31:471 -> 2035
13:36:31:480 -> 1928
13:36:31:490 -> 2286
13:36:31:500 -> 1978
13:36:31:511 -> 2257
13:36:31:520 -> 1833
13:36:31:530 -> 2219
13:36:31:541 -> 1889
13:36:31:551 -> 2209
13:36:31:561 -> 1949
13:36:31:571 -> 2175
13:36:31:581 -> 1930
13:36:31:614 -> 2401
13:36:31:615 -> 1734
13:36:31:615 -> 2326
13:36:31:621 -> 1866
13:36:31:631 -> 2080
13:36:31:641 -> 2216
13:36:31:651 -> 2172
13:36:31:661 -> 1817
13:36:31:671 -> 2172
13:36:31:687 -> 1998
13:36:31:691 -> 2084
13:36:31:712 -> 1948
13:36:31:714 -> 2461
13:36:31:721 -> 2094
13:36:31:731 -> 2313
13:36:31:741 -> 1639
13:36:31:751 -> 2156
13:36:31:761 -> 1935
13:36:31:771 -> 2274
13:36:31:782 -> 1884
13:36:31:792 -> 2270
13:36:31:802 -> 1953
13:36:31:812 -> 1956
13:36:31:822 -> 1909
13:36:31:832 -> 2042
13:36:31:842 -> 1903
13:36:31:852 -> 2046
13:36:31:862 -> 2029
13:36:31:872 -> 2360
13:36:31:882 -> 1565
13:36:31:892 -> 2256
13:36:31:902 -> 2133
13:36:31:912 -> 2346
13:36:31:922 -> 1926
13:36:31:932 -> 1821
13:36:31:949 -> 1845
13:36:31:952 -> 2460
13:36:31:962 -> 2049
13:36:31:973 -> 2030
13:36:31:982 -> 2082
13:36:31:992 -> 1691
13:36:32:002 -> 2052
13:36:32:013 -> 1927
13:36:32:023 -> 1853
13:36:32:033 -> 2071
13:36:32:043 -> 2029
13:36:32:053 -> 2122
13:36:32:063 -> 2069
13:36:32:073 -> 2241
13:36:32:083 -> 2155
13:36:32:093 -> 2165
13:36:32:103 -> 1995
13:36:32:135 -> 2144
13:36:32:135 -> 1986
13:36:32:135 -> 2091
13:36:32:143 -> 2138
13:36:32:153 -> 2243
13:36:32:163 -> 2037
13:36:32:182 -> 2131
13:36:32:183 -> 2140
13:36:32:194 -> 1979
13:36:32:204 -> 2179
13:36:32:213 -> 2104
13:36:32:224 -> 2097
13:36:32:233 -> 2524
13:36:32:244 -> 2054
13:36:32:254 -> 2326
13:36:32:264 -> 2007
13:36:32:274 -> 2158
13:36:32:284 -> 2148
13:36:32:294 -> 2347
13:36:32:304 -> 2140
13:36:32:314 -> 2201
13:36:32:356 -> 1939
13:36:32:356 -> 2139
13:36:32:356 -> 2194
13:36:32:356 -> 2205
13:36:32:373 -> 1979
13:36:32:400 -> 2035
13:36:32:400 -> 2209
13:36:32:400 -> 2089
13:36:32:417 -> 2135
13:36:32:417 -> 2046
13:36:32:424 -> 2092
13:36:32:456 -> 2050
13:36:32:456 -> 2052
13:36:32:456 -> 2242
13:36:32:468 -> 2211
13:36:32:475 -> 2014
13:36:32:485 -> 2275
13:36:32:507 -> 1743
13:36:32:509 -> 2101
13:36:32:515 -> 2181
13:36:32:527 -> 1696
13:36:32:553 -> 1972
13:36:32:553 -> 2179
13:36:32:558 -> 2043
13:36:32:565 -> 2281
13:36:32:575 -> 2043
13:36:32:585 -> 2066
13:36:32:596 -> 1885
13:36:32:605 -> 2190
13:36:32:615 -> 2067
13:36:32:625 -> 2275
13:36:32:661 -> 2076
13:36:32:663 -> 2073
13:36:32:663 -> 2032
13:36:32:665 -> 2133
13:36:32:677 -> 1990
13:36:32:686 -> 2223
13:36:32:696 -> 1909
13:36:32:706 -> 2187
13:36:32:716 -> 2068
13:36:32:726 -> 2189
13:36:32:736 -> 2118
13:36:32:746 -> 2025
13:36:32:762 -> 2160
13:36:32:766 -> 1901
13:36:32:776 -> 2211
13:36:32:786 -> 2239
13:36:32:797 -> 2084
13:36:32:806 -> 2069
13:36:32:827 -> 1868
13:36:32:829 -> 2258
13:36:32:836 -> 2008
13:36:32:846 -> 2131
13:36:32:856 -> 2026
13:36:32:866 -> 1978
13:36:32:876 -> 2113
13:36:32:886 -> 2270
13:36:32:896 -> 2182
13:36:32:906 -> 2202
13:36:32:917 -> 2040
13:36:32:927 -> 2181
13:36:32:937 -> 2026
13:36:32:947 -> 2160
13:36:32:957 -> 1813
13:36:32:967 -> 2195
13:36:32:977 -> 2029
13:36:32:987 -> 2116
13:36:32:997 -> 2107
13:36:33:017 -> 2101
13:36:33:018 -> 2110
13:36:33:027 -> 2183
13:36:33:037 -> 2083
13:36:33:047 -> 2052
13:36:33:058 -> 1990
13:36:33:067 -> 2188
13:36:33:078 -> 2094
13:36:33:087 -> 2147
13:36:33:097 -> 2047
13:36:33:107 -> 2141
13:36:33:117 -> 2106
13:36:33:128 -> 2056
13:36:33:137 -> 2071
13:36:33:148 -> 2066
13:36:33:158 -> 2074
13:36:33:181 -> 2120
13:36:33:182 -> 2062
13:36:33:188 -> 2123
13:36:33:198 -> 2061
13:36:33:208 -> 2141
13:36:33:218 -> 1880
13:36:33:228 -> 2156
13:36:33:250 -> 1996
13:36:33:251 -> 2145
13:36:33:258 -> 1992
13:36:33:268 -> 2152
13:36:33:278 -> 1991
13:36:33:288 -> 2139
13:36:33:298 -> 1988
13:36:33:308 -> 2165
13:36:33:318 -> 1989
13:36:33:328 -> 2168
13:36:33:338 -> 1910
13:36:33:348 -> 2162
13:36:33:359 -> 1986
13:36:33:368 -> 2137
13:36:33:379 -> 1934
13:36:33:389 -> 2156
13:36:33:399 -> 2013
13:36:33:409 -> 2080
13:36:33:419 -> 1968
13:36:33:429 -> 2184
13:36:33:439 -> 1912
13:36:33:455 -> 2157
13:36:33:460 -> 1978
13:36:33:469 -> 2128
13:36:33:479 -> 1974
13:36:33:489 -> 2169
13:36:33:499 -> 1945
13:36:33:510 -> 2146
13:36:33:519 -> 1876
13:36:33:529 -> 2191
13:36:33:540 -> 1940
13:36:33:549 -> 2189
13:36:33:560 -> 1959
13:36:33:569 -> 2184
13:36:33:579 -> 1933
13:36:33:589 -> 2246
13:36:33:600 -> 1927
13:36:33:610 -> 2261
13:36:33:620 -> 1934
13:36:33:630 -> 2240
13:36:33:640 -> 1941
13:36:33:650 -> 2226
13:36:33:667 -> 1928
13:36:33:670 -> 2204
13:36:33:708 -> 1924
13:36:33:709 -> 2206
13:36:33:709 -> 1948
13:36:33:710 -> 2245
13:36:33:720 -> 1942
13:36:33:730 -> 2226
13:36:33:742 -> 1960
13:36:33:750 -> 2202
13:36:33:761 -> 1953
13:36:33:770 -> 2207
13:36:33:780 -> 1933
13:36:33:790 -> 2285
13:36:33:800 -> 1956
13:36:33:810 -> 2210
13:36:33:821 -> 1968
13:36:33:831 -> 2187
13:36:33:841 -> 1957
13:36:33:851 -> 2182
13:36:33:861 -> 1960
13:36:33:871 -> 2173
13:36:33:881 -> 1970
13:36:33:891 -> 2009
13:36:33:901 -> 1977
13:36:33:911 -> 2197
13:36:33:921 -> 1960
13:36:33:931 -> 2175
13:36:33:949 -> 1978
13:36:33:951 -> 2174
13:36:33:961 -> 1994
13:36:33:971 -> 2144
13:36:33:981 -> 1977
13:36:33:991 -> 2145
13:36:34:001 -> 2010
13:36:34:011 -> 2187
13:36:34:021 -> 2000
13:36:34:031 -> 2144
13:36:34:042 -> 1999
13:36:34:052 -> 2140
13:36:34:062 -> 1991
13:36:34:072 -> 2127
13:36:34:082 -> 2022
13:36:34:092 -> 2096
13:36:34:102 -> 1813
13:36:34:112 -> 2133
13:36:34:122 -> 2033
13:36:34:132 -> 2139
13:36:34:142 -> 2008
13:36:34:152 -> 2118
13:36:34:162 -> 2036
13:36:34:183 -> 2124
13:36:34:185 -> 2016
13:36:34:192 -> 2157
13:36:34:204 -> 2017
13:36:34:232 -> 2117
13:36:34:233 -> 2047
13:36:34:233 -> 2124
13:36:34:243 -> 2037
13:36:34:253 -> 2119
13:36:34:263 -> 2051
13:36:34:273 -> 2088
13:36:34:283 -> 2046
13:36:34:293 -> 2123
13:36:34:303 -> 2055
13:36:34:313 -> 2116
13:36:34:323 -> 2060
13:36:34:361 -> 2107
13:36:34:367 -> 2082
13:36:34:367 -> 2121
13:36:34:367 -> 2045
13:36:34:399 -> 2117
13:36:34:399 -> 2013
13:36:34:399 -> 2122
13:36:34:413 -> 2078
13:36:34:439 -> 2096
13:36:34:439 -> 2104
13:36:34:439 -> 2098
13:36:34:448 -> 2101
13:36:34:453 -> 2092
13:36:34:470 -> 2080
13:36:34:474 -> 2118
13:36:34:484 -> 2125
13:36:34:494 -> 2037
13:36:34:504 -> 2124
13:36:34:514 -> 2083
13:36:34:524 -> 2082
13:36:34:534 -> 2085
13:36:34:544 -> 2074
13:36:34:554 -> 2068
13:36:34:564 -> 2094
13:36:34:574 -> 2071
13:36:34:584 -> 2109
13:36:34:594 -> 2133
13:36:34:604 -> 1939
13:36:34:614 -> 2060
13:36:34:624 -> 2121
13:36:34:634 -> 2038
13:36:34:648 -> 2095
13:36:34:654 -> 2088
13:36:34:667 -> 2097
13:36:34:676 -> 2091
13:36:34:690 -> 1989
13:36:34:694 -> 2208
13:36:34:704 -> 2173
13:36:34:715 -> 2021
13:36:34:725 -> 2166
13:36:34:767 -> 1962
13:36:34:781 -> 2209
13:36:34:781 -> 2051
13:36:34:781 -> 2177
13:36:34:781 -> 2027
13:36:34:790 -> 1993
13:36:34:801 -> 2246
13:36:34:805 -> 2175
13:36:34:815 -> 2055
13:36:34:825 -> 2007
13:36:34:835 -> 1948
13:36:34:845 -> 2076
13:36:34:855 -> 2113
13:36:34:865 -> 2131
13:36:34:875 -> 1968
13:36:34:885 -> 2151
13:36:34:895 -> 2183
13:36:34:905 -> 2153
13:36:34:915 -> 2182
13:36:34:926 -> 2096
13:36:34:936 -> 2484
13:36:34:946 -> 1838
13:36:34:956 -> 2216
13:36:34:966 -> 2201
13:36:34:976 -> 1970
13:36:34:986 -> 2086
13:36:34:996 -> 2193
13:36:35:006 -> 2147
13:36:35:016 -> 2401
13:36:35:026 -> 2148
13:36:35:036 -> 1852
13:36:35:046 -> 2088
13:36:35:067 -> 2038
13:36:35:068 -> 1972
13:36:35:076 -> 1938
13:36:35:095 -> 2105
13:36:35:096 -> 2192
13:36:35:107 -> 1915
13:36:35:117 -> 2189
13:36:35:128 -> 1906
13:36:35:137 -> 2214
13:36:35:147 -> 2104
13:36:35:157 -> 2062
13:36:35:167 -> 2046
13:36:35:177 -> 1843
13:36:35:187 -> 2247
13:36:35:197 -> 1855
13:36:35:207 -> 2060
13:36:35:217 -> 1969
13:36:35:227 -> 2004
13:36:35:237 -> 2029
13:36:35:248 -> 2310
13:36:35:257 -> 1867
13:36:35:288 -> 1896
13:36:35:289 -> 2012
13:36:35:289 -> 2031
13:36:35:297 -> 2096
13:36:35:307 -> 2029
13:36:35:317 -> 2121
13:36:35:327 -> 2077
13:36:35:338 -> 2144
13:36:35:347 -> 2302
13:36:35:366 -> 1652
13:36:35:367 -> 2251
13:36:35:382 -> 1802
13:36:35:394 -> 2176
13:36:35:400 -> 1890
13:36:35:408 -> 2196
13:36:35:418 -> 2064
13:36:35:428 -> 2454
13:36:35:438 -> 1897
13:36:35:448 -> 2178
13:36:35:458 -> 1877
13:36:35:468 -> 2249
13:36:35:478 -> 1862
13:36:35:488 -> 2175
13:36:35:498 -> 2327
13:36:35:508 -> 1971
13:36:35:518 -> 2003
13:36:35:528 -> 2107
13:36:35:538 -> 1950
13:36:35:548 -> 2271
13:36:35:558 -> 1944
13:36:35:568 -> 2198
13:36:35:579 -> 2162
13:36:35:588 -> 2146
13:36:35:599 -> 2194
13:36:35:615 -> 2039
13:36:35:619 -> 1873
13:36:35:631 -> 2325
13:36:35:639 -> 2016
13:36:35:649 -> 2398
13:36:35:659 -> 1980
13:36:35:669 -> 2263
13:36:35:679 -> 1866
13:36:35:689 -> 2292
13:36:35:699 -> 1999
13:36:35:709 -> 2375
13:36:35:719 -> 1989
13:36:35:729 -> 2229
13:36:35:739 -> 2006
13:36:35:750 -> 2356
13:36:35:761 -> 1991
13:36:35:769 -> 1869
13:36:35:780 -> 1836
13:36:35:811 -> 2267
13:36:35:811 -> 1808
13:36:35:811 -> 2539
13:36:35:819 -> 2046
13:36:35:830 -> 2177
13:36:35:840 -> 1959
13:36:35:850 -> 2392
13:36:35:860 -> 1903
13:36:35:870 -> 2236
13:36:35:880 -> 1865
13:36:35:896 -> 2208
13:36:35:900 -> 1970
13:36:35:910 -> 2267
13:36:35:920 -> 1992
13:36:35:930 -> 2368
13:36:35:940 -> 1738
13:36:35:950 -> 2170
13:36:35:960 -> 1885
13:36:35:970 -> 2248
13:36:35:980 -> 1903
13:36:35:999 -> 2073
13:36:36:001 -> 2128
13:36:36:010 -> 2077
13:36:36:021 -> 1986
13:36:36:030 -> 2095
13:36:36:041 -> 2101
13:36:36:051 -> 2218
13:36:36:086 -> 1875
13:36:36:086 -> 2145
13:36:36:086 -> 1839
13:36:36:094 -> 2125
13:36:36:129 -> 1967
13:36:36:129 -> 2079
13:36:36:129 -> 1945
13:36:36:133 -> 2176
13:36:36:142 -> 1959
13:36:36:151 -> 2253
13:36:36:169 -> 2121
13:36:36:172 -> 2296
13:36:36:181 -> 2007
13:36:36:192 -> 2195
13:36:36:201 -> 2068
13:36:36:211 -> 2060
13:36:36:222 -> 1829
13:36:36:231 -> 2193
13:36:36:243 -> 2211
13:36:36:251 -> 2203
13:36:36:261 -> 2089
13:36:36:272 -> 2125
13:36:36:282 -> 1702
13:36:36:292 -> 2158
13:36:36:304 -> 2349
13:36:36:354 -> 2201
13:36:36:361 -> 2071
13:36:36:361 -> 2004
13:36:36:361 -> 2001
13:36:36:361 -> 2079
13:36:36:365 -> 2079
13:36:36:372 -> 2074
13:36:36:382 -> 2029
13:36:36:392 -> 2175
13:36:36:403 -> 2019
13:36:36:414 -> 2061
13:36:36:422 -> 2075
13:36:36:432 -> 2087
13:36:36:442 -> 2144
13:36:36:452 -> 2155
13:36:36:462 -> 2116
13:36:36:472 -> 2086
13:36:36:484 -> 2033
13:36:36:493 -> 2108
13:36:36:503 -> 2092
13:36:36:513 -> 2081
13:36:36:523 -> 2025
13:36:36:542 -> 2062
13:36:36:544 -> 2084
13:36:36:553 -> 1983
13:36:36:563 -> 2089
13:36:36:573 -> 2093
13:36:36:583 -> 2046
13:36:36:593 -> 2027
13:36:36:603 -> 2089
13:36:36:613 -> 2093
13:36:36:626 -> 2091
13:36:36:633 -> 2062
13:36:36:643 -> 2027
13:36:36:653 -> 2070
13:36:36:663 -> 2083
13:36:36:673 -> 2058
13:36:36:684 -> 2054
13:36:36:694 -> 2058
13:36:36:704 -> 2092
13:36:36:714 -> 2060
13:36:36:724 -> 2059
13:36:36:734 -> 2068
13:36:36:744 -> 2136
13:36:36:754 -> 2063
13:36:36:764 -> 2089
13:36:36:774 -> 2077
13:36:36:784 -> 2155
13:36:36:794 -> 2063
13:36:36:804 -> 2097
13:36:36:814 -> 2059
13:36:36:824 -> 2118
13:36:36:834 -> 2012
13:36:36:844 -> 2205
13:36:36:875 -> 2017
13:36:36:877 -> 2170
13:36:36:877 -> 1989
13:36:36:891 -> 2143
13:36:36:894 -> 2002
13:36:36:905 -> 2079
13:36:36:915 -> 1995
13:36:36:925 -> 2144
13:36:36:935 -> 2046
13:36:36:945 -> 2104
13:36:36:955 -> 2016
13:36:36:965 -> 2100
13:36:36:977 -> 2054
13:36:36:985 -> 2049
13:36:36:995 -> 2139
13:36:37:005 -> 2124
13:36:37:015 -> 2049
13:36:37:025 -> 2078
13:36:37:035 -> 2099
13:36:37:046 -> 2120
13:36:37:055 -> 2076
13:36:37:066 -> 2092
13:36:37:078 -> 2105
13:36:37:085 -> 2095
13:36:37:095 -> 2090
13:36:37:105 -> 2091
13:36:37:116 -> 2093
13:36:37:126 -> 2071
13:36:37:142 -> 2086
13:36:37:147 -> 2069
13:36:37:156 -> 2089
13:36:37:166 -> 2098
13:36:37:176 -> 2076
13:36:37:186 -> 2122
13:36:37:196 -> 2043
13:36:37:206 -> 2107
13:36:37:216 -> 2050
13:36:37:226 -> 2123
13:36:37:236 -> 2012
13:36:37:246 -> 2108
13:36:37:256 -> 2027
13:36:37:266 -> 2124
13:36:37:276 -> 2034
13:36:37:286 -> 2108
13:36:37:297 -> 2028
13:36:37:306 -> 2130
13:36:37:316 -> 2055
13:36:37:326 -> 2106
13:36:37:336 -> 2021
13:36:37:349 -> 2109
13:36:37:356 -> 2042
13:36:37:367 -> 2099
13:36:37:399 -> 2034
13:36:37:402 -> 2129
13:36:37:402 -> 2000
13:36:37:407 -> 2146
13:36:37:417 -> 2003
13:36:37:427 -> 2095
13:36:37:437 -> 2008
13:36:37:447 -> 2151
13:36:37:457 -> 2007
13:36:37:467 -> 2160
13:36:37:477 -> 1987
13:36:37:487 -> 2129
13:36:37:497 -> 1987
13:36:37:508 -> 2135
13:36:37:517 -> 1982
13:36:37:527 -> 2153
13:36:37:538 -> 1986
13:36:37:547 -> 2188
13:36:37:565 -> 1984
13:36:37:567 -> 2172
13:36:37:577 -> 1985
13:36:37:588 -> 2176
13:36:37:598 -> 2012
13:36:37:608 -> 2160
13:36:37:618 -> 1950
13:36:37:628 -> 2167
13:36:37:638 -> 2000
13:36:37:648 -> 2207
13:36:37:658 -> 1952
13:36:37:668 -> 2216
13:36:37:678 -> 1966
13:36:37:688 -> 2215
13:36:37:698 -> 1990
13:36:37:708 -> 2233
13:36:37:718 -> 1916
13:36:37:728 -> 2246
13:36:37:738 -> 1920
13:36:37:748 -> 2235
13:36:37:759 -> 1918
13:36:37:768 -> 2240
13:36:37:788 -> 1926
13:36:37:795 -> 2246
13:36:37:798 -> 1879
13:36:37:811 -> 2232
13:36:37:819 -> 1927
13:36:37:829 -> 2245
13:36:37:839 -> 1912
13:36:37:849 -> 2278
13:36:37:860 -> 1895
13:36:37:869 -> 2237
13:36:37:879 -> 1976
13:36:37:889 -> 2211
13:36:37:922 -> 1950
13:36:37:926 -> 2255
13:36:37:926 -> 1944
13:36:37:930 -> 2223
13:36:37:939 -> 1923
13:36:37:949 -> 2237
13:36:37:959 -> 1945
13:36:37:969 -> 2253
13:36:37:980 -> 1952
13:36:37:990 -> 2214
13:36:37:999 -> 1956
13:36:38:017 -> 2173
13:36:38:019 -> 1959
13:36:38:030 -> 2217
13:36:38:044 -> 1952
13:36:38:050 -> 2196
13:36:38:063 -> 1976
13:36:38:070 -> 2165
13:36:38:109 -> 1956
13:36:38:117 -> 2187
13:36:38:117 -> 1949
13:36:38:117 -> 2170
13:36:38:145 -> 1978
13:36:38:145 -> 2216
13:36:38:145 -> 1922
13:36:38:150 -> 2215
13:36:38:160 -> 1960
13:36:38:175 -> 2170
13:36:38:188 -> 1981
13:36:38:190 -> 2154
13:36:38:200 -> 1996
13:36:38:211 -> 2171
13:36:38:220 -> 1997
13:36:38:230 -> 2214
13:36:38:240 -> 1986
13:36:38:251 -> 2184
13:36:38:261 -> 1956
13:36:38:271 -> 2171
13:36:38:281 -> 2007
13:36:38:291 -> 2170
13:36:38:301 -> 2004
13:36:38:315 -> 2138
13:36:38:321 -> 2012
13:36:38:331 -> 2162
13:36:38:341 -> 2041
13:36:38:351 -> 2125
13:36:38:362 -> 2090
13:36:38:371 -> 2147
13:36:38:381 -> 2029
13:36:38:391 -> 2171
13:36:38:401 -> 2040
13:36:38:411 -> 2161
13:36:38:421 -> 2069
13:36:38:452 -> 2143
13:36:38:453 -> 2020
13:36:38:453 -> 2115
13:36:38:463 -> 2094
13:36:38:472 -> 2141
13:36:38:481 -> 2107
13:36:38:493 -> 2143
13:36:38:502 -> 2014
13:36:38:512 -> 2226
13:36:38:522 -> 1919
13:36:38:532 -> 2152
13:36:38:542 -> 2056
13:36:38:552 -> 2051
13:36:38:562 -> 2082
13:36:38:572 -> 2107
13:36:38:583 -> 2147
13:36:38:593 -> 2036
13:36:38:603 -> 2229
13:36:38:615 -> 2033
13:36:38:622 -> 2176
13:36:38:638 -> 1984
13:36:38:643 -> 2018
13:36:38:652 -> 2237
13:36:38:662 -> 2125
13:36:38:672 -> 2036
13:36:38:682 -> 2013
13:36:38:692 -> 2041
13:36:38:703 -> 2210
13:36:38:713 -> 2028
13:36:38:723 -> 2105
13:36:38:734 -> 1963
13:36:38:743 -> 2042
13:36:38:753 -> 2143
13:36:38:763 -> 2189
13:36:38:773 -> 2160
13:36:38:783 -> 2082
13:36:38:793 -> 1943
13:36:38:803 -> 2210
13:36:38:818 -> 2045
13:36:38:823 -> 1986
13:36:38:833 -> 1939
13:36:38:844 -> 2201
13:36:38:853 -> 1922
13:36:38:863 -> 2391
13:36:38:876 -> 1945
13:36:38:883 -> 2029
13:36:38:894 -> 2293
13:36:38:903 -> 1993
13:36:38:913 -> 1990
13:36:38:923 -> 2025
13:36:38:934 -> 1972
13:36:38:944 -> 2152
13:36:38:977 -> 1881
13:36:38:978 -> 2136
13:36:38:978 -> 1964
13:36:38:984 -> 2228
13:36:38:994 -> 1973
13:36:39:004 -> 1994
13:36:39:014 -> 2215
13:36:39:028 -> 1949
13:36:39:034 -> 2054
13:36:39:044 -> 2078
13:36:39:055 -> 2060
13:36:39:064 -> 1949
13:36:39:075 -> 2048
13:36:39:084 -> 1979
13:36:39:094 -> 2083
13:36:39:105 -> 2234
13:36:39:114 -> 2216
13:36:39:125 -> 2143
13:36:39:135 -> 1931
13:36:39:145 -> 2219
13:36:39:155 -> 1997
13:36:39:165 -> 2118
13:36:39:175 -> 1900
13:36:39:185 -> 2234
13:36:39:195 -> 2115
13:36:39:205 -> 2053
13:36:39:215 -> 2424
13:36:39:225 -> 2119
13:36:39:235 -> 2399
13:36:39:245 -> 1941
13:36:39:255 -> 2373
13:36:39:265 -> 2047
13:36:39:275 -> 2081
13:36:39:285 -> 2038
13:36:39:296 -> 2131
13:36:39:305 -> 1915
13:36:39:315 -> 2084
13:36:39:325 -> 2135
13:36:39:335 -> 2129
13:36:39:351 -> 2040
13:36:39:356 -> 2141
13:36:39:366 -> 2126
13:36:39:376 -> 2129
13:36:39:386 -> 1999
13:36:39:396 -> 1967
13:36:39:406 -> 2142
13:36:39:416 -> 2127
13:36:39:426 -> 2165
13:36:39:436 -> 2258
13:36:39:446 -> 2018
13:36:39:457 -> 1997
13:36:39:466 -> 2126
13:36:39:500 -> 1958
13:36:39:501 -> 2110
13:36:39:501 -> 2324
13:36:39:506 -> 1939
13:36:39:516 -> 2092
13:36:39:532 -> 2184
13:36:39:536 -> 1901
13:36:39:546 -> 2115
13:36:39:556 -> 1957
13:36:39:566 -> 2074
13:36:39:577 -> 1906
13:36:39:587 -> 1888
13:36:39:597 -> 2203
13:36:39:607 -> 2123
13:36:39:617 -> 2032
13:36:39:627 -> 2126
13:36:39:637 -> 2164
13:36:39:647 -> 2307
13:36:39:657 -> 2142
13:36:39:667 -> 2050
13:36:39:677 -> 2091
13:36:39:687 -> 2411
13:36:39:697 -> 2368
13:36:39:707 -> 2306
13:36:39:717 -> 1767
13:36:39:727 -> 2160
13:36:39:739 -> 1888
13:36:39:747 -> 2319
13:36:39:757 -> 1966
13:36:39:767 -> 2138
13:36:39:778 -> 1783
13:36:39:787 -> 2254
13:36:39:797 -> 1742
13:36:39:809 -> 2356
13:36:39:817 -> 1871
13:36:39:828 -> 2195
13:36:39:838 -> 1868
13:36:39:848 -> 1973
13:36:39:859 -> 1997
13:36:39:868 -> 2152
13:36:39:878 -> 1738
13:36:39:912 -> 2190
13:36:39:912 -> 1824
13:36:39:912 -> 2357
13:36:39:918 -> 2038
13:36:39:953 -> 2528
13:36:39:953 -> 2152
13:36:39:953 -> 2282
13:36:39:965 -> 1650
13:36:39:968 -> 2346
13:36:39:978 -> 2139
13:36:39:988 -> 2190
13:36:40:032 -> 1985
13:36:40:033 -> 2052
13:36:40:033 -> 2118
13:36:40:033 -> 1978
13:36:40:039 -> 2070
13:36:40:049 -> 2017
13:36:40:059 -> 2021
13:36:40:069 -> 2183
13:36:40:084 -> 1797
13:36:40:089 -> 2207
13:36:40:099 -> 1901
13:36:40:109 -> 2363
13:36:40:119 -> 2038
13:36:40:129 -> 2406
13:36:40:139 -> 1930
13:36:40:149 -> 2236
13:36:40:160 -> 2047
13:36:40:169 -> 2136
13:36:40:179 -> 1923
13:36:40:189 -> 2165
13:36:40:199 -> 1884
13:36:40:209 -> 2272
13:36:40:219 -> 2093
13:36:40:229 -> 2178
13:36:40:240 -> 1956
13:36:40:250 -> 2234
13:36:40:259 -> 1967
13:36:40:270 -> 2136
13:36:40:280 -> 2010
13:36:40:290 -> 2189
13:36:40:300 -> 1994
13:36:40:310 -> 2141
13:36:40:320 -> 2045
13:36:40:334 -> 2131
13:36:40:340 -> 2002
13:36:40:350 -> 2165
13:36:40:360 -> 2013
13:36:40:370 -> 2158
13:36:40:380 -> 2015
13:36:40:390 -> 2113
13:36:40:400 -> 2026
13:36:40:410 -> 2107
13:36:40:420 -> 2034
13:36:40:430 -> 2101
13:36:40:440 -> 2041
13:36:40:450 -> 2126
13:36:40:460 -> 1992
13:36:40:470 -> 2135
13:36:40:480 -> 2029
13:36:40:490 -> 2121
13:36:40:500 -> 2045
13:36:40:511 -> 2101
13:36:40:521 -> 2055
13:36:40:561 -> 2129
13:36:40:562 -> 2073
13:36:40:562 -> 2179
13:36:40:562 -> 2095
13:36:40:571 -> 2134
13:36:40:581 -> 2092
13:36:40:591 -> 2141
13:36:40:601 -> 2097
13:36:40:611 -> 2165
13:36:40:621 -> 2080
13:36:40:631 -> 2154
13:36:40:642 -> 2095
13:36:40:651 -> 2076
13:36:40:661 -> 2095
13:36:40:672 -> 2156
13:36:40:681 -> 2116
13:36:40:691 -> 2150
13:36:40:702 -> 2101
13:36:40:711 -> 2116
13:36:40:721 -> 2073
13:36:40:731 -> 2098
13:36:40:742 -> 2114
13:36:40:752 -> 2087
13:36:40:766 -> 2084
13:36:40:772 -> 2090
13:36:40:782 -> 2116
13:36:40:792 -> 2075
13:36:40:802 -> 2098
13:36:40:812 -> 2065
13:36:40:822 -> 2077
13:36:40:832 -> 2052
13:36:40:842 -> 2090
13:36:40:852 -> 2069
13:36:40:862 -> 2053
13:36:40:872 -> 2063
13:36:40:882 -> 2084
13:36:40:892 -> 1990
13:36:40:902 -> 2062
13:36:40:912 -> 2052
13:36:40:922 -> 2048
13:36:40:933 -> 2035
13:36:40:943 -> 2021
13:36:40:953 -> 2037
13:36:40:963 -> 2051
13:36:40:973 -> 2007
13:36:40:983 -> 2072
13:36:40:993 -> 2018
13:36:41:003 -> 2032
13:36:41:013 -> 1999
13:36:41:023 -> 2081
13:36:41:033 -> 2004
13:36:41:043 -> 2062
13:36:41:053 -> 1983
13:36:41:087 -> 2125
13:36:41:089 -> 1948
13:36:41:089 -> 2107
13:36:41:093 -> 1966
13:36:41:104 -> 2115
13:36:41:114 -> 1981
13:36:41:123 -> 2123
13:36:41:133 -> 2019
13:36:41:144 -> 2133
13:36:41:154 -> 1992
13:36:41:164 -> 2096
13:36:41:173 -> 2052
13:36:41:184 -> 2092
13:36:41:194 -> 2034
13:36:41:204 -> 2078
13:36:41:214 -> 2063
13:36:41:224 -> 2068
13:36:41:234 -> 2074
13:36:41:244 -> 2084
13:36:41:257 -> 2084
13:36:41:266 -> 2078
13:36:41:274 -> 2096
13:36:41:284 -> 2081
13:36:41:294 -> 2097
13:36:41:304 -> 2099
13:36:41:315 -> 2088
13:36:41:324 -> 2106
13:36:41:334 -> 2104
13:36:41:344 -> 2109
13:36:41:355 -> 2122
13:36:41:364 -> 2085
13:36:41:375 -> 2121
13:36:41:384 -> 2097
13:36:41:395 -> 2105
13:36:41:405 -> 2106
13:36:41:415 -> 2099
13:36:41:426 -> 2104
13:36:41:436 -> 2082
13:36:41:446 -> 2150
13:36:41:455 -> 2073
13:36:41:466 -> 2135
13:36:41:475 -> 2098
13:36:41:485 -> 2158
13:36:41:495 -> 2082
13:36:41:505 -> 2137
13:36:41:515 -> 2052
13:36:41:525 -> 2039
13:36:41:538 -> 2086
13:36:41:545 -> 2108
13:36:41:556 -> 2049
13:36:41:565 -> 2077
13:36:41:576 -> 2076
13:36:41:586 -> 2082
13:36:41:606 -> 2051
13:36:41:607 -> 2099
13:36:41:616 -> 2042
13:36:41:626 -> 2094
13:36:41:636 -> 2031
13:36:41:646 -> 2088
13:36:41:656 -> 2052
13:36:41:671 -> 2117
13:36:41:676 -> 2024
13:36:41:689 -> 2135
13:36:41:717 -> 2004
13:36:41:717 -> 2132
13:36:41:717 -> 1991
13:36:41:738 -> 2140
13:36:41:738 -> 2010
13:36:41:768 -> 2173
13:36:41:768 -> 1940
13:36:41:768 -> 2157
13:36:41:776 -> 1977
13:36:41:786 -> 2157
13:36:41:803 -> 1973
13:36:41:818 -> 2127
13:36:41:818 -> 1962
13:36:41:827 -> 2181
13:36:41:836 -> 2009
13:36:41:847 -> 2135
13:36:41:857 -> 1983
13:36:41:872 -> 2136
13:36:41:885 -> 1971
13:36:41:888 -> 2158
13:36:41:897 -> 2004
13:36:41:907 -> 2167
13:36:41:917 -> 1994
13:36:41:927 -> 2212
13:36:41:937 -> 1889
13:36:41:947 -> 2172
13:36:41:957 -> 1994
13:36:41:967 -> 2231
13:36:41:977 -> 1990
13:36:41:987 -> 2218
13:36:41:997 -> 1964
13:36:42:007 -> 2248
13:36:42:018 -> 1967
13:36:42:027 -> 2271
13:36:42:037 -> 1866
13:36:42:047 -> 2262
13:36:42:058 -> 1987
13:36:42:068 -> 2278
13:36:42:078 -> 1968
13:36:42:088 -> 2215
13:36:42:098 -> 2090
13:36:42:137 -> 1848
13:36:42:138 -> 2226
13:36:42:138 -> 2231
13:36:42:138 -> 1920
13:36:42:148 -> 2240
13:36:42:158 -> 1866
13:36:42:168 -> 2262
13:36:42:183 -> 1914
13:36:42:188 -> 2219
13:36:42:198 -> 1999
13:36:42:208 -> 2194
13:36:42:218 -> 2025
13:36:42:228 -> 2199
13:36:42:238 -> 1987
13:36:42:248 -> 2102
13:36:42:258 -> 1789
13:36:42:269 -> 2175
13:36:42:278 -> 2021
13:36:42:294 -> 2259
13:36:42:298 -> 2000
13:36:42:309 -> 2040
13:36:42:319 -> 2074
13:36:42:329 -> 2172
13:36:42:339 -> 1426
13:36:42:349 -> 2307
13:36:42:359 -> 2148
13:36:42:369 -> 2154
13:36:42:383 -> 1940
13:36:42:389 -> 2214
13:36:42:399 -> 1795
13:36:42:410 -> 2055
13:36:42:419 -> 1824
13:36:42:429 -> 2360
13:36:42:439 -> 1857
13:36:42:449 -> 2290
13:36:42:459 -> 1959
13:36:42:469 -> 1945
13:36:42:479 -> 2202
13:36:42:489 -> 1862
13:36:42:499 -> 2106
13:36:42:509 -> 2043
13:36:42:519 -> 1925
13:36:42:529 -> 1466
13:36:42:540 -> 1957
13:36:42:550 -> 2489
13:36:42:560 -> 1885
13:36:42:570 -> 1990
13:36:42:580 -> 2062
13:36:42:601 -> 2208
13:36:42:602 -> 1737
13:36:42:610 -> 2114
13:36:42:620 -> 1483
13:36:42:630 -> 2249
13:36:42:661 -> 1944
13:36:42:662 -> 2204
13:36:42:662 -> 1986
13:36:42:670 -> 2177
13:36:42:680 -> 2167
13:36:42:690 -> 1973
13:36:42:700 -> 2002
13:36:42:710 -> 2002
13:36:42:721 -> 2104
13:36:42:730 -> 2537
13:36:42:741 -> 2367
13:36:42:750 -> 2089
13:36:42:761 -> 2111
13:36:42:771 -> 2083
13:36:42:781 -> 2097
13:36:42:791 -> 2093
13:36:42:804 -> 1848
13:36:42:811 -> 2223
13:36:42:821 -> 2149
13:36:42:831 -> 1873
13:36:42:841 -> 2024
13:36:42:851 -> 2174
13:36:42:861 -> 1898
13:36:42:871 -> 2441
13:36:42:881 -> 2051
13:36:42:892 -> 1985
13:36:42:902 -> 2600
13:36:42:912 -> 1660
13:36:42:921 -> 1978
13:36:42:931 -> 2228
13:36:42:943 -> 1956
13:36:42:951 -> 2213
13:36:42:962 -> 2425
13:36:42:971 -> 2035
13:36:42:982 -> 2143
13:36:42:992 -> 2033
13:36:43:002 -> 1915
13:36:43:012 -> 2158
13:36:43:022 -> 2025
13:36:43:032 -> 2111
13:36:43:042 -> 2267
13:36:43:052 -> 1986
13:36:43:068 -> 2350
13:36:43:072 -> 2064
13:36:43:082 -> 1923
13:36:43:092 -> 1921
13:36:43:102 -> 2098
13:36:43:112 -> 2044
13:36:43:122 -> 1920
13:36:43:132 -> 1749
13:36:43:142 -> 1913
13:36:43:152 -> 1855
13:36:43:182 -> 2106
13:36:43:183 -> 2135
13:36:43:183 -> 2004
13:36:43:193 -> 1943
13:36:43:203 -> 2161
13:36:43:213 -> 1770
13:36:43:223 -> 2723
13:36:43:233 -> 1837
13:36:43:243 -> 2346
13:36:43:253 -> 1946
13:36:43:263 -> 2151
13:36:43:276 -> 1862
13:36:43:283 -> 1971
13:36:43:293 -> 2225
13:36:43:303 -> 1949
13:36:43:313 -> 2241
13:36:43:323 -> 2161
13:36:43:333 -> 2138
13:36:43:343 -> 2317
13:36:43:353 -> 2177
13:36:43:363 -> 2260
13:36:43:373 -> 2061
13:36:43:383 -> 2144
13:36:43:393 -> 2004
13:36:43:403 -> 2062
13:36:43:413 -> 2091
13:36:43:432 -> 1893
13:36:43:433 -> 2099
13:36:43:444 -> 1932
13:36:43:482 -> 2073
13:36:43:530 -> 2124
13:36:43:530 -> 1806
13:36:43:530 -> 2285
13:36:43:530 -> 2100
13:36:43:530 -> 2042
13:36:43:530 -> 2235
13:36:43:530 -> 1963
13:36:43:536 -> 2052
13:36:43:544 -> 2214
13:36:43:568 -> 1915
13:36:43:573 -> 2118
13:36:43:582 -> 2135
13:36:43:596 -> 2190
13:36:43:596 -> 1978
13:36:43:604 -> 2227
13:36:43:614 -> 2090
13:36:43:626 -> 1769
13:36:43:634 -> 2130
13:36:43:645 -> 2096
13:36:43:655 -> 2105
13:36:43:665 -> 2091
13:36:43:676 -> 2125
13:36:43:720 -> 2078
13:36:43:730 -> 2031
13:36:43:730 -> 1838
13:36:43:730 -> 2144
13:36:43:730 -> 2082
13:36:43:735 -> 2155
13:36:43:745 -> 2075
13:36:43:755 -> 1885
13:36:43:765 -> 2167
13:36:43:775 -> 2113
13:36:43:785 -> 1988
13:36:43:796 -> 2070
13:36:43:805 -> 2084
13:36:43:815 -> 1971
13:36:43:837 -> 2117
13:36:43:837 -> 1951
13:36:43:846 -> 2091
13:36:43:857 -> 2016
13:36:43:866 -> 2115
13:36:43:876 -> 2009
13:36:43:885 -> 2144
13:36:43:896 -> 1991
13:36:43:906 -> 2154
13:36:43:918 -> 1992
13:36:43:926 -> 2154
13:36:43:936 -> 2016
13:36:43:946 -> 2176
13:36:43:956 -> 1994
13:36:43:966 -> 2091
13:36:43:976 -> 2012
13:36:43:986 -> 2147
13:36:43:996 -> 2019
13:36:44:006 -> 2172
13:36:44:016 -> 2004
13:36:44:026 -> 2172
13:36:44:036 -> 1959
13:36:44:046 -> 2201
13:36:44:056 -> 1985
13:36:44:066 -> 2188
13:36:44:076 -> 1999
13:36:44:086 -> 2189
13:36:44:104 -> 1991
13:36:44:107 -> 2140
13:36:44:118 -> 1944
13:36:44:127 -> 2203
13:36:44:137 -> 1898
13:36:44:147 -> 2210
13:36:44:157 -> 1928
13:36:44:167 -> 2237
13:36:44:177 -> 1926
13:36:44:187 -> 2222
13:36:44:197 -> 1945
13:36:44:207 -> 2219
13:36:44:217 -> 1976
13:36:44:245 -> 2245
13:36:44:246 -> 1990
13:36:44:247 -> 2200
13:36:44:258 -> 1983
13:36:44:268 -> 2229
13:36:44:277 -> 1989
13:36:44:287 -> 2236
13:36:44:302 -> 1988
13:36:44:308 -> 2213
13:36:44:317 -> 1975
13:36:44:328 -> 2248
13:36:44:338 -> 1960
13:36:44:348 -> 2227
13:36:44:365 -> 1917
13:36:44:370 -> 2205
13:36:44:378 -> 1976
13:36:44:388 -> 2194
13:36:44:398 -> 1958
13:36:44:408 -> 2216
13:36:44:418 -> 1950
13:36:44:428 -> 2162
13:36:44:438 -> 1970
13:36:44:448 -> 2136
13:36:44:458 -> 1985
13:36:44:468 -> 2193
13:36:44:478 -> 1994
13:36:44:488 -> 2159
13:36:44:501 -> 1978
13:36:44:509 -> 2191
13:36:44:519 -> 2013
13:36:44:528 -> 2188
13:36:44:539 -> 1961
13:36:44:548 -> 2176
13:36:44:559 -> 1932
13:36:44:569 -> 2180
13:36:44:584 -> 1977
13:36:44:589 -> 2158
13:36:44:599 -> 1937
13:36:44:609 -> 2173
13:36:44:619 -> 1988
13:36:44:629 -> 2140
13:36:44:639 -> 2017
13:36:44:649 -> 2139
13:36:44:659 -> 1994
13:36:44:669 -> 2132
13:36:44:679 -> 2017
13:36:44:689 -> 2120
13:36:44:699 -> 1974
13:36:44:709 -> 2106
13:36:44:719 -> 2028
13:36:44:729 -> 2085
13:36:44:739 -> 2016
13:36:44:773 -> 2102
13:36:44:775 -> 2027
13:36:44:775 -> 2108
13:36:44:780 -> 2045
13:36:44:790 -> 2066
13:36:44:800 -> 2053
13:36:44:810 -> 2121
13:36:44:820 -> 2077
13:36:44:830 -> 2073
13:36:44:840 -> 2051
13:36:44:850 -> 2115
13:36:44:860 -> 2063
13:36:44:870 -> 2112
13:36:44:880 -> 2045
13:36:44:890 -> 2138
13:36:44:900 -> 2047
13:36:44:911 -> 2126
13:36:44:920 -> 2039
13:36:44:931 -> 2111
13:36:44:946 -> 2078
13:36:44:961 -> 2118
13:36:44:969 -> 2083
13:36:44:971 -> 2117
13:36:44:983 -> 2077
13:36:44:992 -> 2100
13:36:45:000 -> 2091
13:36:45:011 -> 2092
13:36:45:021 -> 2087
13:36:45:031 -> 2079
13:36:45:041 -> 2058
13:36:45:051 -> 2092
13:36:45:061 -> 2089
13:36:45:071 -> 2101
13:36:45:081 -> 2069
13:36:45:092 -> 2073
13:36:45:102 -> 2067
13:36:45:118 -> 2076
13:36:45:121 -> 2097
13:36:45:131 -> 2051
13:36:45:141 -> 2073
13:36:45:152 -> 2078
13:36:45:161 -> 2069
13:36:45:174 -> 2047
13:36:45:183 -> 2083
13:36:45:191 -> 2102
13:36:45:202 -> 2081
13:36:45:212 -> 2061
13:36:45:222 -> 2087
13:36:45:231 -> 2074
13:36:45:242 -> 2101
13:36:45:252 -> 2055
13:36:45:262 -> 2106
13:36:45:272 -> 2045
13:36:45:297 -> 2104
13:36:45:299 -> 2043
13:36:45:302 -> 2122
13:36:45:312 -> 2047
13:36:45:322 -> 2147
13:36:45:332 -> 2006
13:36:45:342 -> 2161
13:36:45:352 -> 1976
13:36:45:369 -> 2145
13:36:45:372 -> 1954
13:36:45:382 -> 2143
13:36:45:394 -> 1967
13:36:45:402 -> 2125
13:36:45:413 -> 1984
13:36:45:422 -> 2129
13:36:45:433 -> 1984
13:36:45:443 -> 2129
13:36:45:454 -> 2013
13:36:45:463 -> 2101
13:36:45:473 -> 2032
13:36:45:493 -> 2079
13:36:45:493 -> 2044
13:36:45:505 -> 2070
13:36:45:541 -> 2070
13:36:45:541 -> 2071
13:36:45:541 -> 2060
13:36:45:547 -> 2081
13:36:45:553 -> 2073
13:36:45:586 -> 2076
13:36:45:586 -> 2079
13:36:45:586 -> 2080
13:36:45:598 -> 2077
13:36:45:604 -> 2081
13:36:45:622 -> 2074
13:36:45:627 -> 2071
13:36:45:636 -> 2087
13:36:45:644 -> 2067
13:36:45:655 -> 2107
13:36:45:663 -> 2080
13:36:45:683 -> 2082
13:36:45:686 -> 2093
13:36:45:694 -> 2072
13:36:45:709 -> 2117
13:36:45:714 -> 2069
13:36:45:724 -> 2138
13:36:45:734 -> 2066
13:36:45:744 -> 2107
13:36:45:754 -> 2048
13:36:45:764 -> 2126
13:36:45:774 -> 2061
13:36:45:784 -> 2104
13:36:45:794 -> 2059
13:36:45:829 -> 2091
13:36:45:831 -> 2062
13:36:45:831 -> 2067
13:36:45:834 -> 2088
13:36:45:844 -> 2073
13:36:45:854 -> 2053
13:36:45:864 -> 2100
13:36:45:876 -> 2030
13:36:45:884 -> 2092
13:36:45:894 -> 2053
13:36:45:905 -> 2134
13:36:45:915 -> 2011
13:36:45:925 -> 2142
13:36:45:935 -> 2034
13:36:45:945 -> 2130
13:36:45:955 -> 2033
13:36:45:965 -> 2145
13:36:45:975 -> 2019
13:36:45:987 -> 2153
13:36:46:001 -> 2011
13:36:46:006 -> 2160
13:36:46:019 -> 1984
13:36:46:033 -> 2173
13:36:46:036 -> 1999
13:36:46:045 -> 2168
13:36:46:055 -> 2003
13:36:46:071 -> 2149
13:36:46:076 -> 1947
13:36:46:085 -> 2172
13:36:46:096 -> 2004
13:36:46:106 -> 2141
13:36:46:116 -> 2010
13:36:46:126 -> 2159
13:36:46:136 -> 2001
13:36:46:146 -> 2152
13:36:46:156 -> 1987
13:36:46:166 -> 2173
13:36:46:177 -> 1969
13:36:46:186 -> 2192
13:36:46:196 -> 1992
13:36:46:206 -> 2182
13:36:46:216 -> 1945
13:36:46:226 -> 2175
13:36:46:236 -> 1959
13:36:46:246 -> 2233
13:36:46:256 -> 1985
13:36:46:267 -> 2212
13:36:46:277 -> 1974
13:36:46:286 -> 2226
13:36:46:296 -> 1949
13:36:46:306 -> 2237
13:36:46:317 -> 1929
13:36:46:358 -> 2244
13:36:46:362 -> 1972
13:36:46:362 -> 2239
13:36:46:362 -> 1890
13:36:46:368 -> 2309
13:36:46:377 -> 1919
13:36:46:387 -> 2277
13:36:46:397 -> 1825
13:36:46:407 -> 2363
13:36:46:417 -> 1951
13:36:46:427 -> 2300
13:36:46:437 -> 1948
13:36:46:447 -> 2259
13:36:46:457 -> 1946
13:36:46:467 -> 2228
13:36:46:477 -> 1854
13:36:46:487 -> 2279
13:36:46:497 -> 1833
13:36:46:507 -> 2200
13:36:46:517 -> 1937
13:36:46:527 -> 2194
13:36:46:537 -> 1946
13:36:46:548 -> 2255
13:36:46:558 -> 1854
13:36:46:568 -> 2270
13:36:46:578 -> 1890
13:36:46:588 -> 2239
13:36:46:600 -> 2058
13:36:46:608 -> 2223
13:36:46:618 -> 1954
13:36:46:628 -> 2110
13:36:46:638 -> 1992
13:36:46:648 -> 2035
13:36:46:658 -> 1961
13:36:46:668 -> 2139
13:36:46:678 -> 2025
13:36:46:688 -> 2116
13:36:46:698 -> 2037
13:36:46:708 -> 2112
13:36:46:718 -> 1991
13:36:46:728 -> 2146
13:36:46:738 -> 1913
13:36:46:748 -> 2216
13:36:46:759 -> 2000
13:36:46:768 -> 2128
13:36:46:779 -> 2000
13:36:46:789 -> 2121
13:36:46:800 -> 1972
13:36:46:809 -> 2270
13:36:46:819 -> 1886
13:36:46:829 -> 2107
13:36:46:839 -> 2022
13:36:46:849 -> 2255
13:36:46:879 -> 2037
13:36:46:880 -> 2135
13:36:46:880 -> 2132
13:36:46:889 -> 2041
13:36:46:900 -> 2075
13:36:46:909 -> 1852
13:36:46:919 -> 1657
13:36:46:929 -> 1920
13:36:46:940 -> 1944
13:36:46:950 -> 1899
13:36:46:959 -> 1986
13:36:46:971 -> 2188
13:36:46:980 -> 1913
13:36:46:990 -> 1820
13:36:47:000 -> 2050
13:36:47:011 -> 2061
13:36:47:020 -> 2230
13:36:47:030 -> 1977
13:36:47:040 -> 1867
13:36:47:050 -> 2218
13:36:47:066 -> 2023
13:36:47:070 -> 2230
13:36:47:080 -> 1727
13:36:47:090 -> 2391
13:36:47:109 -> 1977
13:36:47:112 -> 2118
13:36:47:136 -> 1890
13:36:47:136 -> 2265
13:36:47:160 -> 2168
13:36:47:160 -> 1755
13:36:47:160 -> 2108
13:36:47:173 -> 1947
13:36:47:195 -> 1970
13:36:47:195 -> 1782
13:36:47:212 -> 2022
13:36:47:212 -> 1847
13:36:47:220 -> 2038
13:36:47:231 -> 2164
13:36:47:242 -> 1958
13:36:47:251 -> 1952
13:36:47:261 -> 2101
13:36:47:271 -> 2044
13:36:47:281 -> 1650
13:36:47:292 -> 2019
13:36:47:301 -> 2247
13:36:47:311 -> 1888
13:36:47:321 -> 2039
13:36:47:331 -> 2404
13:36:47:343 -> 1771
13:36:47:351 -> 2089
13:36:47:361 -> 2049
13:36:47:371 -> 1925
13:36:47:402 -> 2248
13:36:47:403 -> 2073
13:36:47:403 -> 2075
13:36:47:411 -> 1920
13:36:47:422 -> 2161
13:36:47:431 -> 2125
13:36:47:441 -> 2257
13:36:47:452 -> 1778
13:36:47:462 -> 2265
13:36:47:472 -> 1333
13:36:47:482 -> 2267
13:36:47:492 -> 1925
13:36:47:502 -> 2336
13:36:47:512 -> 1768
13:36:47:522 -> 2137
13:36:47:532 -> 1664
13:36:47:549 -> 2225
13:36:47:552 -> 1992
13:36:47:562 -> 2014
13:36:47:572 -> 2106
13:36:47:583 -> 2206
13:36:47:592 -> 2024
13:36:47:603 -> 2126
13:36:47:612 -> 2213
13:36:47:622 -> 2118
13:36:47:632 -> 2223
13:36:47:643 -> 2031
13:36:47:653 -> 2168
13:36:47:662 -> 2103
13:36:47:673 -> 2081
13:36:47:683 -> 2110
13:36:47:693 -> 2056
13:36:47:703 -> 2065
13:36:47:713 -> 2124
13:36:47:723 -> 2025
13:36:47:733 -> 2087
13:36:47:743 -> 2096
13:36:47:753 -> 2073
13:36:47:763 -> 2067
13:36:47:773 -> 2079
13:36:47:783 -> 2093
13:36:47:806 -> 2094
13:36:47:808 -> 2090
13:36:47:813 -> 2057
13:36:47:823 -> 2123
13:36:47:839 -> 2048
13:36:47:843 -> 2132
13:36:47:854 -> 2035
13:36:47:863 -> 2051
13:36:47:873 -> 2055
13:36:47:884 -> 2134
13:36:47:894 -> 2053
13:36:47:923 -> 2115
13:36:47:927 -> 2058
13:36:47:927 -> 2098
13:36:47:934 -> 2048
13:36:47:944 -> 2111
13:36:47:955 -> 2089
13:36:47:964 -> 2055
13:36:47:974 -> 2048
13:36:47:984 -> 2112
13:36:47:994 -> 2006
13:36:48:009 -> 2120
13:36:48:014 -> 2019
13:36:48:024 -> 2121
13:36:48:034 -> 1971
13:36:48:045 -> 2147
13:36:48:058 -> 2001
13:36:48:064 -> 2148
13:36:48:074 -> 1994
13:36:48:084 -> 2160
13:36:48:095 -> 2014
13:36:48:104 -> 2120
13:36:48:115 -> 2004
13:36:48:125 -> 2176
13:36:48:135 -> 2028
13:36:48:145 -> 2165
13:36:48:155 -> 1971
13:36:48:165 -> 2201
13:36:48:175 -> 1996
13:36:48:185 -> 2183
13:36:48:195 -> 1980
13:36:48:205 -> 2185
13:36:48:215 -> 1981
13:36:48:225 -> 2162
13:36:48:235 -> 2013
13:36:48:245 -> 2121
13:36:48:255 -> 1986
13:36:48:265 -> 2198
13:36:48:276 -> 2001
13:36:48:285 -> 2186
13:36:48:296 -> 1961
13:36:48:305 -> 2192
13:36:48:315 -> 1953
13:36:48:340 -> 2213
13:36:48:341 -> 1955
13:36:48:346 -> 2239
13:36:48:356 -> 1953
13:36:48:366 -> 2228
13:36:48:376 -> 1956
13:36:48:386 -> 2178
13:36:48:396 -> 1971
13:36:48:406 -> 2256
13:36:48:416 -> 1927
13:36:48:446 -> 2212
13:36:48:447 -> 1942
13:36:48:447 -> 2204
13:36:48:456 -> 1945
13:36:48:466 -> 2237
13:36:48:476 -> 1948
13:36:48:488 -> 2212
13:36:48:496 -> 1947
13:36:48:506 -> 2230
13:36:48:517 -> 1943
13:36:48:527 -> 2234
13:36:48:559 -> 1915
13:36:48:574 -> 2213
13:36:48:574 -> 1939
13:36:48:574 -> 2216
13:36:48:612 -> 1933
13:36:48:612 -> 2206
13:36:48:612 -> 1931
13:36:48:612 -> 2182
13:36:48:617 -> 1933
13:36:48:627 -> 2185
13:36:48:637 -> 1941
13:36:48:656 -> 2194
13:36:48:657 -> 1953
13:36:48:669 -> 2170
13:36:48:677 -> 1962
13:36:48:688 -> 2175
13:36:48:697 -> 1959
13:36:48:707 -> 2163
13:36:48:717 -> 1974
13:36:48:727 -> 2153
13:36:48:737 -> 1960
13:36:48:747 -> 2148
13:36:48:758 -> 1950
13:36:48:767 -> 2169
13:36:48:778 -> 1960
13:36:48:788 -> 2168
13:36:48:798 -> 1998
13:36:48:808 -> 2167
13:36:48:818 -> 1988
13:36:48:838 -> 2152
13:36:48:840 -> 1989
13:36:48:848 -> 2181
13:36:48:858 -> 1998
13:36:48:868 -> 2155
13:36:48:879 -> 2010
13:36:48:888 -> 2142
13:36:48:898 -> 2011
13:36:48:908 -> 2127
13:36:48:918 -> 2036
13:36:48:928 -> 2143
13:36:48:938 -> 2019
13:36:48:971 -> 2146
13:36:48:977 -> 2037
13:36:48:977 -> 2142
13:36:48:978 -> 2037
13:36:48:989 -> 2147
13:36:48:999 -> 2044
13:36:49:009 -> 2120
13:36:49:019 -> 2049
13:36:49:029 -> 2125
13:36:49:039 -> 2053
13:36:49:052 -> 2138
13:36:49:059 -> 2052
13:36:49:069 -> 2143
13:36:49:079 -> 2050
13:36:49:089 -> 2143
13:36:49:099 -> 2064
13:36:49:109 -> 2132
13:36:49:119 -> 2072
13:36:49:129 -> 2129
13:36:49:139 -> 2060
13:36:49:149 -> 2135
13:36:49:159 -> 2059
13:36:49:169 -> 2119
13:36:49:180 -> 2071
13:36:49:190 -> 2122
13:36:49:199 -> 2063
13:36:49:210 -> 2083
13:36:49:220 -> 2070
13:36:49:230 -> 2121
13:36:49:240 -> 2087
13:36:49:250 -> 2106
13:36:49:260 -> 2070
13:36:49:270 -> 2080
13:36:49:280 -> 2080
13:36:49:299 -> 2084
13:36:49:300 -> 2080
13:36:49:310 -> 2051
13:36:49:320 -> 2067
13:36:49:330 -> 2084
13:36:49:340 -> 2070
13:36:49:350 -> 2048
13:36:49:360 -> 2083
13:36:49:371 -> 2029
13:36:49:380 -> 2070
13:36:49:392 -> 2064
13:36:49:400 -> 2068
13:36:49:411 -> 2033
13:36:49:420 -> 2083
13:36:49:431 -> 2039
13:36:49:441 -> 2079
13:36:49:451 -> 2039
13:36:49:461 -> 2076
13:36:49:471 -> 2044
13:36:49:496 -> 2098
13:36:49:498 -> 2036
13:36:49:501 -> 2086
13:36:49:511 -> 2072
13:36:49:521 -> 2078
13:36:49:538 -> 2041
13:36:49:546 -> 2124
13:36:49:551 -> 2020
13:36:49:561 -> 2131
13:36:49:571 -> 1986
13:36:49:581 -> 2136
13:36:49:591 -> 1998
13:36:49:601 -> 2153
13:36:49:611 -> 1991
13:36:49:621 -> 2152
13:36:49:632 -> 1999
13:36:49:641 -> 2165
13:36:49:651 -> 2018
13:36:49:661 -> 2145
13:36:49:672 -> 2034
13:36:49:682 -> 2150
13:36:49:692 -> 2042
13:36:49:702 -> 2129
13:36:49:712 -> 2064
13:36:49:722 -> 2108
13:36:49:732 -> 2079
13:36:49:749 -> 2096
13:36:49:752 -> 2086
13:36:49:762 -> 2089
13:36:49:772 -> 2053
13:36:49:782 -> 2100
13:36:49:792 -> 2075
13:36:49:802 -> 2124
13:36:49:812 -> 2073
13:36:49:823 -> 2118
13:36:49:832 -> 2090
13:36:49:843 -> 2096
13:36:49:853 -> 2089
13:36:49:863 -> 2125
13:36:49:873 -> 2034
13:36:49:883 -> 2100
13:36:49:893 -> 2104
13:36:49:903 -> 2047
13:36:49:913 -> 2079
13:36:49:938 -> 2064
13:36:49:939 -> 2032
13:36:49:943 -> 2132
13:36:49:955 -> 1978
13:36:49:963 -> 2174
13:36:49:973 -> 1960
13:36:49:985 -> 2140
13:36:49:993 -> 2066
13:36:50:022 -> 2076
13:36:50:026 -> 2028
13:36:50:026 -> 2069
13:36:50:033 -> 2070
13:36:50:043 -> 2097
13:36:50:054 -> 2181
13:36:50:063 -> 2104
13:36:50:076 -> 2022
13:36:50:084 -> 2190
13:36:50:094 -> 2137
13:36:50:104 -> 2142
13:36:50:114 -> 2083
13:36:50:124 -> 2062
13:36:50:134 -> 2052
13:36:50:144 -> 2267
13:36:50:154 -> 1999
13:36:50:164 -> 2175
13:36:50:174 -> 1997
13:36:50:184 -> 2124
13:36:50:194 -> 2115
13:36:50:216 -> 2266
13:36:50:219 -> 2002
13:36:50:224 -> 2075
13:36:50:235 -> 2074
13:36:50:244 -> 2342
13:36:50:254 -> 1897
13:36:50:264 -> 2253
13:36:50:276 -> 2136
13:36:50:284 -> 2153
13:36:50:297 -> 2087
13:36:50:304 -> 1908
13:36:50:315 -> 1710
13:36:50:326 -> 2382
13:36:50:335 -> 2102
13:36:50:345 -> 2265
13:36:50:355 -> 1981
13:36:50:365 -> 2286
13:36:50:375 -> 1972
13:36:50:385 -> 2220
13:36:50:395 -> 2183
13:36:50:405 -> 2131
13:36:50:415 -> 2232
13:36:50:426 -> 2131
13:36:50:435 -> 2018
13:36:50:445 -> 2294
13:36:50:455 -> 2007
13:36:50:465 -> 2252
13:36:50:475 -> 1979
13:36:50:485 -> 2145
13:36:50:496 -> 1860
13:36:50:574 -> 2366
13:36:50:574 -> 2134
13:36:50:575 -> 2204
13:36:50:575 -> 1766
13:36:50:575 -> 2285
13:36:50:575 -> 1973
13:36:50:575 -> 2343
13:36:50:576 -> 1641
13:36:50:586 -> 1927
13:36:50:609 -> 2110
13:36:50:609 -> 2282
13:36:50:616 -> 2092
13:36:50:626 -> 2311
13:36:50:637 -> 2050
13:36:50:646 -> 2344
13:36:50:656 -> 2110
13:36:50:666 -> 2235
13:36:50:676 -> 1799
13:36:50:686 -> 2083
13:36:50:696 -> 1814
13:36:50:706 -> 2205
13:36:50:716 -> 1956
13:36:50:726 -> 1891
13:36:50:736 -> 1923
13:36:50:746 -> 2154
13:36:50:756 -> 1841
13:36:50:766 -> 1778
13:36:50:776 -> 2124
13:36:50:787 -> 2213
13:36:50:797 -> 1942
13:36:50:807 -> 1966
13:36:50:817 -> 1752
13:36:50:827 -> 2016
13:36:50:849 -> 1776
13:36:50:850 -> 2120
13:36:50:857 -> 1584
13:36:50:867 -> 2280
13:36:50:878 -> 1851
13:36:50:887 -> 1695
13:36:50:897 -> 2186
13:36:50:907 -> 2618
13:36:50:917 -> 2112
13:36:50:927 -> 2217
13:36:50:937 -> 2130
13:36:50:947 -> 1915
13:36:50:957 -> 2170
13:36:50:968 -> 2197
13:36:50:978 -> 1736
13:36:50:988 -> 2393
13:36:50:998 -> 1839
13:36:51:010 -> 1997
13:36:51:019 -> 2071
13:36:51:028 -> 2089
13:36:51:038 -> 2011
13:36:51:048 -> 2219
13:36:51:058 -> 2020
13:36:51:068 -> 2038
13:36:51:102 -> 1767
13:36:51:104 -> 2121
13:36:51:104 -> 2128
13:36:51:108 -> 2042
13:36:51:119 -> 1849
13:36:51:132 -> 2335
13:36:51:142 -> 2120
13:36:51:153 -> 2225
13:36:51:159 -> 1992
13:36:51:168 -> 2155
13:36:51:178 -> 1993
13:36:51:189 -> 2276
13:36:51:199 -> 1849
13:36:51:208 -> 2028
13:36:51:219 -> 2258
13:36:51:229 -> 2205
13:36:51:239 -> 2083
13:36:51:249 -> 2014
13:36:51:259 -> 2087
13:36:51:269 -> 2180
13:36:51:279 -> 1971
13:36:51:289 -> 2144
13:36:51:299 -> 2201
13:36:51:317 -> 2214
13:36:51:319 -> 2018
13:36:51:329 -> 2172
13:36:51:353 -> 2167
13:36:51:340 -> 2028
13:36:51:362 -> 2065
13:36:51:370 -> 2086
13:36:51:379 -> 2097
13:36:51:389 -> 2083
13:36:51:399 -> 2047
13:36:51:409 -> 2115
13:36:51:419 -> 2085
13:36:51:429 -> 2123
13:36:51:439 -> 2076
13:36:51:450 -> 2079
13:36:51:460 -> 2118
13:36:51:470 -> 2034
13:36:51:480 -> 2070
13:36:51:490 -> 2076
13:36:51:500 -> 2103
13:36:51:515 -> 2087
13:36:51:520 -> 2099
13:36:51:530 -> 2092
13:36:51:543 -> 2092
13:36:51:558 -> 2085
13:36:51:560 -> 2119
13:36:51:570 -> 2034
13:36:51:580 -> 2089
13:36:51:590 -> 2063
13:36:51:600 -> 2101
13:36:51:627 -> 2063
13:36:51:628 -> 2109
13:36:51:630 -> 2060
13:36:51:641 -> 2095
13:36:51:651 -> 2038
13:36:51:661 -> 2093
13:36:51:671 -> 2036
13:36:51:681 -> 2092
13:36:51:691 -> 2049
13:36:51:701 -> 2122
13:36:51:711 -> 2016
13:36:51:721 -> 2153
13:36:51:731 -> 1997
13:36:51:742 -> 2147
13:36:51:751 -> 1993
13:36:51:761 -> 2152
13:36:51:774 -> 1987
13:36:51:781 -> 2141
13:36:51:791 -> 2017
13:36:51:801 -> 2141
13:36:51:811 -> 2017
13:36:51:821 -> 2138
13:36:51:833 -> 2046
13:36:51:841 -> 2111
13:36:51:851 -> 2052
13:36:51:861 -> 2133
13:36:51:871 -> 2067
13:36:51:881 -> 2075
13:36:51:892 -> 2098
13:36:51:902 -> 2102
13:36:51:912 -> 2100
13:36:51:922 -> 2072
13:36:51:932 -> 2098
13:36:51:942 -> 2101
13:36:51:952 -> 2112
13:36:51:962 -> 2043
13:36:51:972 -> 2106
13:36:51:984 -> 2054
13:36:51:992 -> 2118
13:36:52:002 -> 2105
13:36:52:012 -> 2117
13:36:52:024 -> 2093
13:36:52:032 -> 2094
13:36:52:042 -> 2102
13:36:52:052 -> 2092
13:36:52:066 -> 2042
13:36:52:073 -> 2080
13:36:52:082 -> 2119
13:36:52:092 -> 2049
13:36:52:102 -> 2152
13:36:52:113 -> 2030
13:36:52:123 -> 2156
13:36:52:156 -> 2045
13:36:52:158 -> 2123
13:36:52:158 -> 2033
13:36:52:163 -> 2121
13:36:52:173 -> 2052
13:36:52:183 -> 2087
13:36:52:194 -> 2053
13:36:52:203 -> 2087
13:36:52:213 -> 2018
13:36:52:223 -> 2053
13:36:52:233 -> 2049
13:36:52:243 -> 2051
13:36:52:253 -> 2031
13:36:52:268 -> 2065
13:36:52:276 -> 2026
13:36:52:283 -> 2117
13:36:52:293 -> 2013
13:36:52:317 -> 2106
13:36:52:334 -> 1998
13:36:52:334 -> 2116
13:36:52:334 -> 1993
13:36:52:352 -> 2074
13:36:52:371 -> 2008
13:36:52:371 -> 2071
13:36:52:380 -> 1979
13:36:52:384 -> 2106
13:36:52:407 -> 1987
13:36:52:411 -> 2138
13:36:52:414 -> 1968
13:36:52:425 -> 2135
13:36:52:434 -> 1984
13:36:52:445 -> 2161
13:36:52:454 -> 1968
13:36:52:464 -> 2133
13:36:52:475 -> 1963
13:36:52:484 -> 2121
13:36:52:494 -> 1957
13:36:52:504 -> 2129
13:36:52:515 -> 1968
13:36:52:533 -> 2159
13:36:52:534 -> 1980
13:36:52:545 -> 2148
13:36:52:555 -> 1990
13:36:52:572 -> 2175
13:36:52:576 -> 1982
13:36:52:585 -> 2193
13:36:52:595 -> 1983
13:36:52:605 -> 2223
13:36:52:615 -> 1963
13:36:52:625 -> 2232
13:36:52:636 -> 1991
13:36:52:645 -> 2217
13:36:52:694 -> 1968
13:36:52:703 -> 2242
13:36:52:703 -> 1950
13:36:52:703 -> 2242
13:36:52:703 -> 1957
13:36:52:706 -> 2248
13:36:52:715 -> 1958
13:36:52:726 -> 2250
13:36:52:736 -> 1963
13:36:52:746 -> 2215
13:36:52:755 -> 1980
13:36:52:765 -> 2247
13:36:52:776 -> 1966
13:36:52:786 -> 2235
13:36:52:796 -> 1954
13:36:52:806 -> 2228
13:36:52:816 -> 1980
13:36:52:835 -> 2241
13:36:52:836 -> 1948
13:36:52:846 -> 2221
13:36:52:856 -> 1974
13:36:52:866 -> 2210
13:36:52:876 -> 1959
13:36:52:886 -> 2213
13:36:52:896 -> 1958
13:36:52:906 -> 2194
13:36:52:916 -> 1959
13:36:52:926 -> 2186
13:36:52:936 -> 1970
13:36:52:946 -> 2175
13:36:52:957 -> 1902
13:36:52:966 -> 2158
13:36:52:976 -> 1917
13:36:52:987 -> 2169
13:36:52:997 -> 1953
13:36:53:007 -> 2174
13:36:53:017 -> 1970
13:36:53:027 -> 2167
13:36:53:048 -> 1952
13:36:53:050 -> 2156
13:36:53:057 -> 1948
13:36:53:067 -> 2148
13:36:53:077 -> 1960
13:36:53:087 -> 2158
13:36:53:097 -> 1974
13:36:53:107 -> 2137
13:36:53:118 -> 1979
13:36:53:129 -> 2153
13:36:53:137 -> 1995
13:36:53:147 -> 2130
13:36:53:158 -> 2006
13:36:53:167 -> 2138
13:36:53:177 -> 2005
13:36:53:187 -> 2100
13:36:53:215 -> 2033
13:36:53:216 -> 2123
13:36:53:218 -> 2025
13:36:53:228 -> 2115
13:36:53:238 -> 2041
13:36:53:248 -> 2118
13:36:53:259 -> 2027
13:36:53:268 -> 2120
13:36:53:278 -> 2024
13:36:53:288 -> 2123
13:36:53:298 -> 2057
13:36:53:308 -> 2125
13:36:53:318 -> 2065
13:36:53:331 -> 2125
13:36:53:338 -> 2040
13:36:53:348 -> 2147
13:36:53:358 -> 2050
13:36:53:368 -> 2129
13:36:53:378 -> 2052
13:36:53:388 -> 2136
13:36:53:399 -> 2081
13:36:53:409 -> 2122
13:36:53:419 -> 2046
13:36:53:429 -> 2135
13:36:53:439 -> 2089
13:36:53:449 -> 2130
13:36:53:459 -> 2069
13:36:53:469 -> 2123
13:36:53:479 -> 2063
13:36:53:493 -> 2110
13:36:53:499 -> 2106
13:36:53:509 -> 2104
13:36:53:519 -> 2041
13:36:53:529 -> 2105
13:36:53:550 -> 2066
13:36:53:552 -> 2105
13:36:53:559 -> 2097
13:36:53:569 -> 2076
13:36:53:579 -> 2110
13:36:53:589 -> 2089
13:36:53:599 -> 2080
13:36:53:609 -> 2001
13:36:53:619 -> 2085
13:36:53:629 -> 2085
13:36:53:640 -> 2077
13:36:53:650 -> 2059
13:36:53:660 -> 2079
13:36:53:670 -> 2109
13:36:53:680 -> 2077
13:36:53:690 -> 2055
13:36:53:700 -> 2115
13:36:53:710 -> 2071
13:36:53:741 -> 2100
13:36:53:741 -> 2005
13:36:53:741 -> 2055
13:36:53:750 -> 2083
13:36:53:760 -> 2093
13:36:53:776 -> 2087
13:36:53:782 -> 2055
13:36:53:791 -> 2096
13:36:53:801 -> 2203
13:36:53:810 -> 1970
13:36:53:820 -> 2157
13:36:53:832 -> 2054
13:36:53:841 -> 2162
13:36:53:851 -> 2019
13:36:53:861 -> 2337
13:36:53:871 -> 1939
13:36:53:881 -> 1959
13:36:53:891 -> 2009
13:36:53:901 -> 1937
13:36:53:911 -> 2068
13:36:53:921 -> 2071
13:36:53:931 -> 2063
13:36:53:941 -> 2266
13:36:53:951 -> 1973
13:36:53:961 -> 2176
13:36:53:971 -> 2101
13:36:53:981 -> 2028
13:36:53:992 -> 2150
13:36:54:001 -> 2209
13:36:54:013 -> 1834
13:36:54:021 -> 2275
13:36:54:031 -> 1983
13:36:54:067 -> 2175
13:36:54:067 -> 2055
13:36:54:067 -> 2138
13:36:54:081 -> 2040
13:36:54:109 -> 2290
13:36:54:109 -> 1613
13:36:54:109 -> 2176
13:36:54:112 -> 1978
13:36:54:134 -> 2045
13:36:54:152 -> 2284
13:36:54:152 -> 2107
13:36:54:152 -> 2392
13:36:54:162 -> 1805
13:36:54:172 -> 1857
13:36:54:184 -> 2269
13:36:54:192 -> 2288
13:36:54:202 -> 2326
13:36:54:213 -> 2250
13:36:54:225 -> 1960
13:36:54:233 -> 2247
13:36:54:264 -> 1962
13:36:54:265 -> 2178
13:36:54:265 -> 2161
13:36:54:273 -> 2181
13:36:54:283 -> 2023
13:36:54:292 -> 2060
13:36:54:303 -> 2132
13:36:54:313 -> 2098
13:36:54:323 -> 1684
13:36:54:333 -> 2250
13:36:54:343 -> 1726
13:36:54:353 -> 2221
13:36:54:363 -> 2166
13:36:54:373 -> 2279
13:36:54:388 -> 2177
13:36:54:393 -> 2038
13:36:54:403 -> 2001
13:36:54:413 -> 1966
13:36:54:423 -> 2356
13:36:54:433 -> 1980
13:36:54:443 -> 2344
13:36:54:453 -> 2093
13:36:54:463 -> 1887
13:36:54:473 -> 1915
13:36:54:483 -> 2247
13:36:54:493 -> 1772
13:36:54:504 -> 2151
13:36:54:514 -> 1970
13:36:54:524 -> 2158
13:36:54:534 -> 1854
13:36:54:544 -> 2136
13:36:54:565 -> 1961
13:36:54:566 -> 2113
13:36:54:574 -> 1976
13:36:54:584 -> 2067
13:36:54:594 -> 1957
13:36:54:604 -> 2343
13:36:54:614 -> 2075
13:36:54:624 -> 2096
13:36:54:634 -> 2091
13:36:54:644 -> 2077
13:36:54:655 -> 1961
13:36:54:664 -> 2213
13:36:54:675 -> 1956
13:36:54:684 -> 2200
13:36:54:694 -> 1957
13:36:54:704 -> 2145
13:36:54:714 -> 1689
13:36:54:725 -> 2237
13:36:54:735 -> 2001
13:36:54:744 -> 2112
13:36:54:755 -> 1823
13:36:54:811 -> 2080
13:36:54:826 -> 1862
13:36:54:826 -> 2183
13:36:54:826 -> 2153
13:36:54:826 -> 2181
13:36:54:826 -> 2107
13:36:54:826 -> 2221
13:36:54:836 -> 1936
13:36:54:845 -> 2509
13:36:54:855 -> 1988
13:36:54:865 -> 2244
13:36:54:875 -> 2023
13:36:54:885 -> 1996
13:36:54:895 -> 2000
13:36:54:914 -> 2257
13:36:54:917 -> 1915
13:36:54:925 -> 2348
13:36:54:936 -> 1797
13:36:54:946 -> 2073
13:36:54:956 -> 1838
13:36:54:966 -> 2161
13:36:54:978 -> 1931
13:36:54:986 -> 2263
13:36:54:996 -> 1908
13:36:55:006 -> 2062
13:36:55:016 -> 1976
13:36:55:026 -> 2404
13:36:55:036 -> 1690
13:36:55:046 -> 1998
13:36:55:056 -> 1891
13:36:55:067 -> 2226
13:36:55:076 -> 2053
13:36:55:086 -> 2283
13:36:55:096 -> 1969
13:36:55:106 -> 2026
13:36:55:116 -> 2013
13:36:55:126 -> 2198
13:36:55:136 -> 2026
13:36:55:147 -> 2271
13:36:55:158 -> 2356
13:36:55:167 -> 2239
13:36:55:177 -> 1992
13:36:55:187 -> 2039
13:36:55:197 -> 1940
13:36:55:208 -> 2041
13:36:55:217 -> 2007
13:36:55:234 -> 2094
13:36:55:239 -> 2015
13:36:55:247 -> 2260
13:36:55:257 -> 1985
13:36:55:267 -> 2381
13:36:55:277 -> 1937
13:36:55:288 -> 2373
13:36:55:297 -> 2045
13:36:55:307 -> 2223
13:36:55:339 -> 1967
13:36:55:341 -> 2246
13:36:55:341 -> 2116
13:36:55:347 -> 2046
13:36:55:357 -> 2052
13:36:55:367 -> 2131
13:36:55:378 -> 2073
13:36:55:387 -> 2034
13:36:55:398 -> 2049
13:36:55:414 -> 2089
13:36:55:418 -> 1949
13:36:55:428 -> 2141
13:36:55:443 -> 1967
13:36:55:448 -> 2171
13:36:55:458 -> 1986
13:36:55:468 -> 2000
13:36:55:478 -> 2093
13:36:55:488 -> 2135
13:36:55:498 -> 2043
13:36:55:508 -> 2189
13:36:55:518 -> 2073
13:36:55:528 -> 2119
13:36:55:538 -> 2072
13:36:55:548 -> 2125
13:36:55:558 -> 2007
13:36:55:568 -> 2118
13:36:55:578 -> 2091
13:36:55:588 -> 2148
13:36:55:598 -> 2076
13:36:55:608 -> 2123
13:36:55:618 -> 2071
13:36:55:633 -> 2099
13:36:55:639 -> 2114
13:36:55:649 -> 2124
13:36:55:659 -> 2132
13:36:55:669 -> 2120
13:36:55:679 -> 2097
13:36:55:689 -> 2098
13:36:55:699 -> 2085
13:36:55:709 -> 2105
13:36:55:719 -> 2086
13:36:55:729 -> 2099
13:36:55:739 -> 2067
13:36:55:749 -> 2105
13:36:55:759 -> 2052
13:36:55:769 -> 2065
13:36:55:779 -> 2086
13:36:55:789 -> 2075
13:36:55:799 -> 2073
13:36:55:816 -> 2091
13:36:55:819 -> 2065
13:36:55:829 -> 2082
13:36:55:872 -> 2076
13:36:55:910 -> 2061
13:36:55:910 -> 2077
13:36:55:910 -> 2076
13:36:55:918 -> 2091
13:36:55:918 -> 2044
13:36:55:918 -> 2081
13:36:55:918 -> 2049
13:36:55:947 -> 2091
13:36:55:947 -> 2057
13:36:55:947 -> 2070
13:36:55:951 -> 2024
13:36:55:960 -> 2045
13:36:55:972 -> 2017
13:36:55:985 -> 2090
13:36:55:990 -> 2014
13:36:56:000 -> 2128
13:36:56:011 -> 1967
13:36:56:020 -> 2149
13:36:56:031 -> 1986
13:36:56:041 -> 2124
13:36:56:050 -> 1956
13:36:56:061 -> 2139
13:36:56:071 -> 1973
13:36:56:081 -> 2119
13:36:56:091 -> 2006
13:36:56:101 -> 2091
13:36:56:111 -> 2004
13:36:56:121 -> 2119
13:36:56:131 -> 2046
13:36:56:141 -> 2081
13:36:56:153 -> 2043
13:36:56:161 -> 2112
13:36:56:172 -> 2045
13:36:56:183 -> 2097
13:36:56:194 -> 2075
13:36:56:201 -> 2097
13:36:56:211 -> 2046
13:36:56:221 -> 2077
13:36:56:231 -> 2058
13:36:56:242 -> 2084
13:36:56:251 -> 2064
13:36:56:261 -> 2106
13:36:56:271 -> 2078
13:36:56:282 -> 2107
13:36:56:292 -> 2085
13:36:56:302 -> 2099
13:36:56:312 -> 2092
13:36:56:322 -> 2107
13:36:56:332 -> 2031
13:36:56:342 -> 2103
13:36:56:352 -> 2099
13:36:56:362 -> 2131
13:36:56:409 -> 2072
13:36:56:411 -> 2140
13:36:56:411 -> 2062
13:36:56:411 -> 2139
13:36:56:412 -> 2045
13:36:56:423 -> 2160
13:36:56:432 -> 2057
13:36:56:442 -> 2124
13:36:56:452 -> 2079
13:36:56:462 -> 2147
13:36:56:472 -> 2055
13:36:56:482 -> 2116
13:36:56:493 -> 2051
13:36:56:502 -> 2124
13:36:56:513 -> 2061
13:36:56:523 -> 2111
13:36:56:533 -> 2067
13:36:56:543 -> 2114
13:36:56:553 -> 2032
13:36:56:563 -> 2106
13:36:56:573 -> 2019
13:36:56:583 -> 2125
13:36:56:593 -> 2015
13:36:56:603 -> 2113
13:36:56:613 -> 1996
13:36:56:623 -> 2128
13:36:56:633 -> 1995
13:36:56:643 -> 2139
13:36:56:660 -> 2008
13:36:56:663 -> 2149
13:36:56:674 -> 1984
13:36:56:683 -> 2143
13:36:56:695 -> 1994
13:36:56:703 -> 2161
13:36:56:713 -> 1978
13:36:56:724 -> 2165
13:36:56:734 -> 1970
13:36:56:744 -> 2164
13:36:56:754 -> 1950
13:36:56:764 -> 2140
13:36:56:774 -> 1989
13:36:56:784 -> 2130
13:36:56:795 -> 1978
13:36:56:804 -> 2137
13:36:56:814 -> 1993
13:36:56:825 -> 2139
13:36:56:834 -> 1960
13:36:56:844 -> 2154
13:36:56:854 -> 1965
13:36:56:864 -> 2150
13:36:56:874 -> 2000
13:36:56:884 -> 2169
13:36:56:899 -> 1973
13:36:56:904 -> 2197
13:36:56:939 -> 1965
13:36:56:940 -> 2202
13:36:56:940 -> 1933
13:36:56:945 -> 2239
13:36:56:955 -> 1946
13:36:56:965 -> 2219
13:36:56:975 -> 1929
13:36:56:985 -> 2244
13:36:56:995 -> 1926
13:36:57:005 -> 2250
13:36:57:015 -> 1941
13:36:57:026 -> 2236
13:36:57:035 -> 1955
13:36:57:045 -> 2242
13:36:57:055 -> 1928
13:36:57:066 -> 2249
13:36:57:075 -> 1967
13:36:57:085 -> 2263
13:36:57:095 -> 1967
13:36:57:105 -> 2257
13:36:57:117 -> 1962
13:36:57:125 -> 2241
13:36:57:135 -> 1970
13:36:57:146 -> 2241
13:36:57:155 -> 1971
13:36:57:165 -> 2241
13:36:57:183 -> 1983
13:36:57:190 -> 2234
13:36:57:196 -> 1975
13:36:57:206 -> 2181
13:36:57:216 -> 1980
13:36:57:226 -> 2197
13:36:57:236 -> 1969
13:36:57:246 -> 2187
13:36:57:256 -> 1965
13:36:57:266 -> 2180
13:36:57:276 -> 1960
13:36:57:286 -> 2176
13:36:57:296 -> 1960
13:36:57:306 -> 2178
13:36:57:316 -> 1970
13:36:57:326 -> 2157
13:36:57:336 -> 1987
13:36:57:346 -> 2149
13:36:57:357 -> 1984
13:36:57:366 -> 2169
13:36:57:376 -> 1989
13:36:57:386 -> 2165
13:36:57:397 -> 1986
13:36:57:415 -> 2141
13:36:57:417 -> 1961
13:36:57:427 -> 2155
13:36:57:437 -> 2005
13:36:57:472 -> 2153
13:36:57:475 -> 2007
13:36:57:475 -> 2157
13:36:57:480 -> 1993
13:36:57:487 -> 2145
13:36:57:497 -> 2025
13:36:57:507 -> 2099
13:36:57:517 -> 2026
13:36:57:527 -> 2134
13:36:57:537 -> 2007
13:36:57:547 -> 2139
13:36:57:557 -> 2048
13:36:57:567 -> 2167
13:36:57:601 -> 2045
13:36:57:608 -> 2146
13:36:57:608 -> 2010
13:36:57:608 -> 2108
13:36:57:627 -> 2071
13:36:57:642 -> 2174
13:36:57:642 -> 1864
13:36:57:648 -> 2180
13:36:57:679 -> 1972
13:36:57:683 -> 2134
13:36:57:683 -> 2014
13:36:57:689 -> 2121
13:36:57:698 -> 2057
13:36:57:708 -> 2130
13:36:57:718 -> 2065
13:36:57:728 -> 2079
13:36:57:738 -> 1989
13:36:57:748 -> 2156
13:36:57:758 -> 2003
13:36:57:768 -> 2136
13:36:57:778 -> 2112
13:36:57:788 -> 1923
13:36:57:798 -> 2116
13:36:57:808 -> 2130
13:36:57:818 -> 2110
13:36:57:828 -> 2150
13:36:57:838 -> 2161
13:36:57:849 -> 2145
13:36:57:859 -> 2117
13:36:57:869 -> 2312
13:36:57:879 -> 1862
13:36:57:889 -> 2261
13:36:57:899 -> 2189
13:36:57:919 -> 2038
13:36:57:922 -> 2083
13:36:57:929 -> 2303
13:36:57:940 -> 2189
13:36:57:949 -> 1944
13:36:57:959 -> 2426
13:36:57:993 -> 1621
13:36:57:996 -> 1719
13:36:57:996 -> 2024
13:36:57:999 -> 2208
13:36:58:010 -> 1946
13:36:58:022 -> 1955
13:36:58:029 -> 2014
13:36:58:039 -> 1892
13:36:58:049 -> 1821
13:36:58:061 -> 1921
13:36:58:070 -> 2204
13:36:58:080 -> 1912
13:36:58:090 -> 2179
13:36:58:100 -> 2215
13:36:58:110 -> 2105
13:36:58:120 -> 2186
13:36:58:130 -> 1972
13:36:58:140 -> 2325
13:36:58:150 -> 2342
13:36:58:162 -> 1870
13:36:58:170 -> 2117
13:36:58:180 -> 2120
13:36:58:190 -> 2251
13:36:58:200 -> 1907
13:36:58:210 -> 2085
13:36:58:220 -> 2015
13:36:58:230 -> 2000
13:36:58:241 -> 1915
13:36:58:250 -> 1775
13:36:58:260 -> 2390
13:36:58:270 -> 1940
13:36:58:280 -> 2442
13:36:58:290 -> 1942
13:36:58:300 -> 2301
13:36:58:311 -> 2033
13:36:58:321 -> 2260
13:36:58:331 -> 2070
13:36:58:341 -> 2427
13:36:58:351 -> 2001
13:36:58:361 -> 2123
13:36:58:371 -> 1919
13:36:58:381 -> 2157
13:36:58:397 -> 1980
13:36:58:401 -> 2084
13:36:58:411 -> 2188
13:36:58:422 -> 2023
13:36:58:431 -> 2141
13:36:58:441 -> 1992
13:36:58:451 -> 2233
13:36:58:462 -> 2388
13:36:58:471 -> 2078
13:36:58:481 -> 2047
13:36:58:491 -> 2044
13:36:58:512 -> 2069
13:36:58:513 -> 1932
13:36:58:522 -> 1798
13:36:58:532 -> 1884
13:36:58:542 -> 1935
13:36:58:552 -> 1988
13:36:58:562 -> 2171
13:36:58:572 -> 2107
13:36:58:582 -> 2074
13:36:58:592 -> 1902
13:36:58:602 -> 2033
13:36:58:615 -> 2265
13:36:58:622 -> 2270
13:36:58:632 -> 2019
13:36:58:642 -> 2056
13:36:58:652 -> 2059
13:36:58:663 -> 1921
13:36:58:672 -> 2091
13:36:58:682 -> 2012
13:36:58:692 -> 2217
13:36:58:702 -> 2007
13:36:58:712 -> 1933
13:36:58:722 -> 2099
13:36:58:732 -> 1874
13:36:58:742 -> 2060
13:36:58:753 -> 2223
13:36:58:763 -> 1862
13:36:58:773 -> 1941
13:36:58:783 -> 2329
13:36:58:800 -> 2174
13:36:58:803 -> 2022
13:36:58:813 -> 2078
13:36:58:823 -> 2084
13:36:58:833 -> 2274
13:36:58:843 -> 2153
13:36:58:853 -> 2098
13:36:58:863 -> 2305
13:36:58:873 -> 2053
13:36:58:883 -> 2010
13:36:58:893 -> 1922
13:36:58:903 -> 2195
13:36:58:913 -> 1737
13:36:58:924 -> 2096
13:36:58:933 -> 1990
13:36:58:943 -> 2329
13:36:58:953 -> 2045
13:36:58:964 -> 1930
13:36:58:974 -> 1942
13:36:58:984 -> 2211
13:36:58:994 -> 2033
13:36:59:039 -> 2139
13:36:59:044 -> 1996
13:36:59:044 -> 2117
13:36:59:044 -> 2119
13:36:59:044 -> 1972
13:36:59:054 -> 1857
13:36:59:064 -> 2130
13:36:59:076 -> 1927
13:36:59:084 -> 2250
13:36:59:094 -> 1977
13:36:59:104 -> 2030
13:36:59:114 -> 2079
13:36:59:124 -> 2322
13:36:59:134 -> 1928
13:36:59:144 -> 2181
13:36:59:155 -> 2090
13:36:59:164 -> 2241
13:36:59:174 -> 2015
13:36:59:184 -> 2233
13:36:59:195 -> 1877
13:36:59:205 -> 2339
13:36:59:215 -> 2039
13:36:59:225 -> 2177
13:36:59:235 -> 2009
13:36:59:245 -> 2401
13:36:59:256 -> 1962
13:36:59:265 -> 2067
13:36:59:275 -> 1842
13:36:59:285 -> 2107
13:36:59:296 -> 1780
13:36:59:314 -> 2198
13:36:59:317 -> 1630
13:36:59:325 -> 2195
13:36:59:335 -> 1946
13:36:59:345 -> 2265
13:36:59:355 -> 2082
13:36:59:368 -> 2175
13:36:59:375 -> 2062
13:36:59:388 -> 2115
13:36:59:395 -> 2010
13:36:59:405 -> 2329
13:36:59:415 -> 1997
13:36:59:426 -> 2293
13:36:59:437 -> 1906
13:36:59:446 -> 2192
13:36:59:456 -> 1981
13:36:59:466 -> 2223
13:36:59:476 -> 1978
13:36:59:487 -> 2204
13:36:59:496 -> 1980
13:36:59:517 -> 2144
13:36:59:531 -> 1982
13:36:59:531 -> 2178
13:36:59:581 -> 1976
13:36:59:581 -> 2170
13:36:59:581 -> 1935
13:36:59:581 -> 2165
13:36:59:581 -> 1990
13:36:59:586 -> 2145
13:36:59:601 -> 1985
13:36:59:608 -> 2168
13:36:59:616 -> 1982
13:36:59:627 -> 2154
13:36:59:637 -> 1986
13:36:59:647 -> 2147
13:36:59:664 -> 1991
13:36:59:669 -> 2152
13:36:59:677 -> 1969
13:36:59:687 -> 2151
13:36:59:697 -> 1935
13:36:59:708 -> 2142
13:36:59:717 -> 1971
13:36:59:727 -> 2103
13:36:59:737 -> 2010
13:36:59:747 -> 2113
13:36:59:758 -> 2018
13:36:59:767 -> 2105
13:36:59:777 -> 1996
13:36:59:787 -> 2119
13:36:59:797 -> 2044
13:36:59:807 -> 2119
13:36:59:817 -> 2020
13:36:59:827 -> 2129
13:36:59:837 -> 1981
13:36:59:847 -> 2125
13:36:59:858 -> 2037
13:36:59:868 -> 2120
13:36:59:878 -> 2051
13:36:59:888 -> 2148
13:36:59:898 -> 2051
13:36:59:908 -> 2089
13:36:59:918 -> 2036
13:36:59:931 -> 2105
13:36:59:938 -> 2068
13:36:59:948 -> 2130
13:36:59:958 -> 2063
13:36:59:968 -> 2138
13:36:59:978 -> 2046
13:36:59:988 -> 2120
13:36:59:998 -> 2064
13:37:00:008 -> 2134
13:37:00:018 -> 2065
13:37:00:028 -> 2146
13:37:00:045 -> 2024
13:37:00:048 -> 2129
13:37:00:066 -> 2069
13:37:00:129 -> 2098
13:37:00:129 -> 2087
13:37:00:129 -> 2100
13:37:00:129 -> 2092
13:37:00:167 -> 2100
13:37:00:167 -> 2109
13:37:00:167 -> 2113
13:37:00:167 -> 2110
13:37:00:167 -> 2112
13:37:00:167 -> 2095
13:37:00:179 -> 2093
13:37:00:179 -> 2089
13:37:00:190 -> 2102
13:37:00:199 -> 2120
13:37:00:214 -> 2101
13:37:00:219 -> 2134
13:37:00:229 -> 2125
13:37:00:239 -> 2101
13:37:00:249 -> 2084
13:37:00:259 -> 2097
13:37:00:269 -> 2074
13:37:00:279 -> 2085
13:37:00:289 -> 2076
13:37:00:299 -> 2079
13:37:00:310 -> 2046
13:37:00:319 -> 2093
13:37:00:330 -> 2087
13:37:00:340 -> 2082
13:37:00:350 -> 2069
13:37:00:360 -> 2081
13:37:00:370 -> 2045
13:37:00:380 -> 2081
13:37:00:390 -> 2044
13:37:00:400 -> 2105
13:37:00:410 -> 1996
13:37:00:420 -> 2135
13:37:00:430 -> 1943
13:37:00:449 -> 2129
13:37:00:451 -> 1998
13:37:00:460 -> 2138
13:37:00:470 -> 1979
13:37:00:480 -> 2130
13:37:00:490 -> 1983
13:37:00:500 -> 2137
13:37:00:510 -> 1965
13:37:00:521 -> 2116
13:37:00:530 -> 2010
13:37:00:541 -> 2062
13:37:00:551 -> 2050
13:37:00:561 -> 2068
13:37:00:571 -> 2014
13:37:00:581 -> 2096
13:37:00:591 -> 2054
13:37:00:601 -> 2078
13:37:00:611 -> 2051
13:37:00:621 -> 2073
13:37:00:651 -> 2065
13:37:00:652 -> 2063
13:37:00:652 -> 2094
13:37:00:667 -> 2105
13:37:00:671 -> 2085
13:37:00:681 -> 2083
13:37:00:691 -> 2099
13:37:00:703 -> 2096
13:37:00:711 -> 2096
13:37:00:721 -> 2109
13:37:00:731 -> 2089
13:37:00:742 -> 2081
13:37:00:752 -> 2013
13:37:00:762 -> 2075
13:37:00:772 -> 2097
13:37:00:782 -> 2103
13:37:00:792 -> 2086
13:37:00:802 -> 2107
13:37:00:812 -> 2068
13:37:00:822 -> 2141
13:37:00:832 -> 2059
13:37:00:843 -> 2134
13:37:00:852 -> 2071
13:37:00:867 -> 2149
13:37:00:872 -> 2040
13:37:00:882 -> 2122
13:37:00:892 -> 2067
13:37:00:902 -> 2111
13:37:00:912 -> 2057
13:37:00:922 -> 2076
13:37:00:932 -> 2067
13:37:00:942 -> 1997
13:37:00:952 -> 2087
13:37:00:962 -> 2017
13:37:00:972 -> 2078
13:37:00:982 -> 2078
13:37:00:992 -> 2044
13:37:01:003 -> 2113
13:37:01:015 -> 2023
13:37:01:023 -> 2116
13:37:01:035 -> 1976
13:37:01:043 -> 2157
13:37:01:053 -> 2060
13:37:01:063 -> 2143
13:37:01:073 -> 2102
13:37:01:084 -> 2164
13:37:01:093 -> 1978
13:37:01:103 -> 2159
13:37:01:113 -> 2003
13:37:01:123 -> 2192
13:37:01:133 -> 2013
13:37:01:143 -> 2179
13:37:01:173 -> 1967
13:37:01:174 -> 2164
13:37:01:174 -> 1975
13:37:01:183 -> 2175
13:37:01:193 -> 1959
13:37:01:204 -> 2164
13:37:01:213 -> 1912
13:37:01:256 -> 2191
13:37:01:260 -> 1945
13:37:01:260 -> 2175
13:37:01:260 -> 1983
13:37:01:303 -> 2164
13:37:01:303 -> 1968
13:37:01:303 -> 2163
13:37:01:303 -> 2017
13:37:01:317 -> 2151
13:37:01:317 -> 1996
13:37:01:326 -> 2212
13:37:01:350 -> 1949
13:37:01:350 -> 2180
13:37:01:356 -> 1961
13:37:01:364 -> 2179
13:37:01:383 -> 1952
13:37:01:402 -> 2182
13:37:01:402 -> 1918
13:37:01:413 -> 2206
13:37:01:433 -> 1901
13:37:01:433 -> 2233
13:37:01:435 -> 1961
13:37:01:445 -> 2191
13:37:01:456 -> 1909
13:37:01:466 -> 2180
13:37:01:475 -> 1969
13:37:01:485 -> 2227
13:37:01:495 -> 1931
13:37:01:505 -> 2223
13:37:01:515 -> 1954
13:37:01:525 -> 2276
13:37:01:535 -> 1935
13:37:01:546 -> 2242
13:37:01:555 -> 2012
13:37:01:565 -> 2194
13:37:01:575 -> 1977
13:37:01:585 -> 2296
13:37:01:596 -> 1957
13:37:01:605 -> 2281
13:37:01:615 -> 1938
13:37:01:630 -> 2250
13:37:01:637 -> 1952
13:37:01:646 -> 2221
13:37:01:660 -> 1959
13:37:01:665 -> 2172
13:37:01:699 -> 1929
13:37:01:701 -> 2226
13:37:01:701 -> 2029
13:37:01:706 -> 2187
13:37:01:716 -> 1983
13:37:01:727 -> 2187
13:37:01:736 -> 2088
13:37:01:746 -> 2218
13:37:01:756 -> 2049
13:37:01:766 -> 2166
13:37:01:776 -> 1963
13:37:01:786 -> 2308
13:37:01:796 -> 1948
13:37:01:806 -> 2205
13:37:01:816 -> 1772
13:37:01:826 -> 2266
13:37:01:836 -> 1869
13:37:01:850 -> 2172
13:37:01:857 -> 1980
13:37:01:866 -> 2048
13:37:01:877 -> 1944
13:37:01:887 -> 2123
13:37:01:897 -> 1903
13:37:01:907 -> 2407
13:37:01:917 -> 1445
13:37:01:927 -> 2134
13:37:01:937 -> 2140
13:37:01:947 -> 2073
13:37:01:957 -> 2055
13:37:01:967 -> 2226
13:37:01:977 -> 1930
13:37:01:987 -> 2136
13:37:01:997 -> 2335
13:37:02:007 -> 2246
13:37:02:017 -> 2302
13:37:02:027 -> 2297
13:37:02:047 -> 1852
13:37:02:048 -> 1879
13:37:02:057 -> 1941
13:37:02:067 -> 2149
13:37:02:078 -> 1710
13:37:02:088 -> 2528
13:37:02:097 -> 1662
13:37:02:109 -> 2234
13:37:02:118 -> 1960
13:37:02:128 -> 2025
13:37:02:138 -> 1962
13:37:02:148 -> 2165
13:37:02:158 -> 1860
13:37:02:168 -> 2140
13:37:02:178 -> 1997
13:37:02:188 -> 2396
13:37:02:198 -> 1723
13:37:02:226 -> 2258
13:37:02:227 -> 2264
13:37:02:228 -> 2159
13:37:02:238 -> 2030
13:37:02:248 -> 2084
13:37:02:258 -> 1936
13:37:02:268 -> 2001
13:37:02:284 -> 2275
13:37:02:288 -> 2096
13:37:02:298 -> 1612
13:37:02:308 -> 2177
13:37:02:318 -> 1830
13:37:02:329 -> 2187
13:37:02:339 -> 2054
13:37:02:349 -> 1996
13:37:02:359 -> 1981
13:37:02:369 -> 2087
13:37:02:379 -> 2096
13:37:02:389 -> 2270
13:37:02:399 -> 2178
13:37:02:409 -> 2133
13:37:02:419 -> 2472
13:37:02:429 -> 2179
13:37:02:439 -> 2211
13:37:02:449 -> 2255
13:37:02:459 -> 2204
13:37:02:469 -> 2300
13:37:02:479 -> 1837
13:37:02:489 -> 2168
13:37:02:499 -> 2158
13:37:02:516 -> 2034
13:37:02:519 -> 2149
13:37:02:531 -> 2029
13:37:02:540 -> 2049
13:37:02:549 -> 2235
13:37:02:560 -> 2294
13:37:02:570 -> 1841
13:37:02:580 -> 1920
13:37:02:590 -> 2179
13:37:02:600 -> 2106
13:37:02:610 -> 2131
13:37:02:620 -> 2120
13:37:02:630 -> 2131
13:37:02:640 -> 1993
13:37:02:650 -> 2132
13:37:02:660 -> 2025
13:37:02:670 -> 2074
13:37:02:680 -> 2115
13:37:02:690 -> 2226
13:37:02:700 -> 1955
13:37:02:710 -> 1864
13:37:02:753 -> 2413
13:37:02:754 -> 1344
13:37:02:754 -> 2179
13:37:02:754 -> 1869
13:37:02:761 -> 1979
13:37:02:771 -> 1951
13:37:02:780 -> 2024
13:37:02:791 -> 2027
13:37:02:801 -> 1938
13:37:02:811 -> 2074
13:37:02:821 -> 2335
13:37:02:831 -> 1869
13:37:02:841 -> 2133
13:37:02:851 -> 2089
13:37:02:861 -> 1909
13:37:02:871 -> 2100
13:37:02:881 -> 2321
13:37:02:891 -> 2127
13:37:02:901 -> 2133
13:37:02:911 -> 1996
13:37:02:921 -> 2067
13:37:02:931 -> 1981
13:37:02:941 -> 2042
13:37:02:951 -> 2116
13:37:02:965 -> 1935
13:37:02:971 -> 2073
13:37:02:981 -> 2009
13:37:02:992 -> 2306
13:37:03:001 -> 2139
13:37:03:011 -> 2058
13:37:03:022 -> 2091
13:37:03:032 -> 2093
13:37:03:042 -> 1905
13:37:03:074 -> 2050
13:37:03:076 -> 2042
13:37:03:076 -> 2129
13:37:03:085 -> 2333
13:37:03:112 -> 2032
13:37:03:112 -> 2023
13:37:03:118 -> 1883
13:37:03:125 -> 2298
13:37:03:150 -> 2097
13:37:03:150 -> 2255
13:37:03:159 -> 2108
13:37:03:162 -> 2260
13:37:03:173 -> 1959
13:37:03:183 -> 2191
13:37:03:192 -> 2094
13:37:03:202 -> 2275
13:37:03:213 -> 1871
13:37:03:222 -> 2043
13:37:03:233 -> 2105
13:37:03:243 -> 1801
13:37:03:275 -> 2100
13:37:03:277 -> 2037
13:37:03:277 -> 2056
13:37:03:296 -> 2060
13:37:03:298 -> 2075
13:37:03:303 -> 1918
13:37:03:313 -> 1925
13:37:03:324 -> 2166
13:37:03:333 -> 1903
13:37:03:343 -> 2048
13:37:03:353 -> 2013
13:37:03:364 -> 2180
13:37:03:373 -> 1991
13:37:03:383 -> 2188
13:37:03:393 -> 1929
13:37:03:403 -> 2093
13:37:03:414 -> 2096
13:37:03:425 -> 2060
13:37:03:433 -> 2012
13:37:03:444 -> 2201
13:37:03:453 -> 1961
13:37:03:464 -> 2197
13:37:03:474 -> 1980
13:37:03:483 -> 2092
13:37:03:494 -> 2034
13:37:03:504 -> 2146
13:37:03:514 -> 1986
13:37:03:524 -> 2151
13:37:03:534 -> 2128
13:37:03:545 -> 2121
13:37:03:555 -> 1954
13:37:03:566 -> 2118
13:37:03:575 -> 2017
13:37:03:584 -> 2114
13:37:03:595 -> 2020
13:37:03:604 -> 2168
13:37:03:614 -> 1962
13:37:03:624 -> 2185
13:37:03:634 -> 1945
13:37:03:647 -> 2198
13:37:03:654 -> 1927
13:37:03:664 -> 2198
13:37:03:675 -> 1962
13:37:03:684 -> 2245
13:37:03:695 -> 1930
13:37:03:705 -> 2229
13:37:03:715 -> 1948
13:37:03:725 -> 2205
13:37:03:735 -> 1884
13:37:03:745 -> 2224
13:37:03:755 -> 1929
13:37:03:765 -> 2241
13:37:03:805 -> 1909
13:37:03:806 -> 2226
13:37:03:806 -> 1907
13:37:03:806 -> 2229
13:37:03:826 -> 1883
13:37:03:827 -> 2243
13:37:03:836 -> 1942
13:37:03:846 -> 2237
13:37:03:855 -> 1976
13:37:03:865 -> 2231
13:37:03:875 -> 1941
13:37:03:886 -> 2218
13:37:03:895 -> 1968
13:37:03:905 -> 2227
13:37:03:915 -> 1955
13:37:03:925 -> 2263
13:37:03:936 -> 1940
13:37:03:946 -> 2245
13:37:03:956 -> 1971
13:37:03:966 -> 2214
13:37:03:976 -> 1958
13:37:03:986 -> 2197
13:37:03:996 -> 1955
13:37:04:006 -> 2188
13:37:04:016 -> 1964
13:37:04:026 -> 2186
13:37:04:036 -> 1956
13:37:04:046 -> 2178
13:37:04:056 -> 1948
13:37:04:067 -> 2188
13:37:04:078 -> 1981
13:37:04:086 -> 2170
13:37:04:096 -> 1983
13:37:04:107 -> 2179
13:37:04:116 -> 1970
13:37:04:126 -> 2149
13:37:04:136 -> 1981
13:37:04:146 -> 2152
13:37:04:157 -> 1981
13:37:04:167 -> 2158
13:37:04:177 -> 1995
13:37:04:187 -> 2144
13:37:04:197 -> 1996
13:37:04:207 -> 2137
13:37:04:217 -> 1998
13:37:04:227 -> 2138
13:37:04:237 -> 2003
13:37:04:247 -> 2126
13:37:04:257 -> 1997
13:37:04:267 -> 2105
13:37:04:283 -> 2006
13:37:04:287 -> 2111
13:37:04:297 -> 2000
13:37:04:335 -> 2083
13:37:04:336 -> 2011
13:37:04:336 -> 2104
13:37:04:337 -> 2017
13:37:04:348 -> 2101
13:37:04:358 -> 1997
13:37:04:368 -> 2101
13:37:04:378 -> 2021
13:37:04:387 -> 2110
13:37:04:398 -> 2030
13:37:04:408 -> 2093
13:37:04:418 -> 2015
13:37:04:428 -> 2104
13:37:04:439 -> 2046
13:37:04:448 -> 2107
13:37:04:459 -> 2057
13:37:04:468 -> 2113
13:37:04:478 -> 2054
13:37:04:488 -> 2111
13:37:04:498 -> 2063
13:37:04:508 -> 2117
13:37:04:518 -> 2072
13:37:04:528 -> 2118
13:37:04:538 -> 2083
13:37:04:548 -> 2118
13:37:04:560 -> 2064
13:37:04:568 -> 2107
13:37:04:578 -> 2067
13:37:04:589 -> 2094
13:37:04:598 -> 2073
13:37:04:609 -> 2117
13:37:04:619 -> 2078
13:37:04:629 -> 2094
13:37:04:639 -> 2077
13:37:04:649 -> 2090
13:37:04:659 -> 2092
13:37:04:669 -> 2100
13:37:04:679 -> 2081
13:37:04:689 -> 2103
13:37:04:699 -> 2090
13:37:04:709 -> 2090
13:37:04:719 -> 2098
13:37:04:729 -> 2101
13:37:04:739 -> 2089
13:37:04:749 -> 2103
13:37:04:760 -> 2085
13:37:04:769 -> 2083
13:37:04:779 -> 2093
13:37:04:789 -> 2084
13:37:04:799 -> 2085
13:37:04:810 -> 2095
13:37:04:819 -> 2087
13:37:04:829 -> 2085
13:37:04:869 -> 2079
13:37:04:871 -> 2066
13:37:04:871 -> 2081
13:37:04:871 -> 2085
13:37:04:880 -> 2085
13:37:04:891 -> 2072
13:37:04:900 -> 2094
13:37:04:911 -> 2089
13:37:04:920 -> 2076
13:37:04:930 -> 2067
13:37:04:941 -> 2091
13:37:04:950 -> 2050
13:37:04:960 -> 2121
13:37:04:970 -> 2037
13:37:04:980 -> 2114
13:37:05:024 -> 2014
13:37:05:037 -> 2124
13:37:05:037 -> 1997
13:37:05:037 -> 2151
13:37:05:037 -> 1993
13:37:05:067 -> 2178
13:37:05:067 -> 2001
13:37:05:067 -> 2129
13:37:05:075 -> 2033
13:37:05:081 -> 2054
13:37:05:105 -> 2030
13:37:05:105 -> 2135
13:37:05:113 -> 2024
13:37:05:121 -> 2127
13:37:05:132 -> 2070
13:37:05:141 -> 2132
13:37:05:151 -> 2068
13:37:05:161 -> 2092
13:37:05:171 -> 2051
13:37:05:183 -> 2122
13:37:05:191 -> 2066
13:37:05:202 -> 2077
13:37:05:211 -> 2093
13:37:05:221 -> 2058
13:37:05:231 -> 2118
13:37:05:241 -> 2092
13:37:05:251 -> 2034
13:37:05:261 -> 2050
13:37:05:281 -> 2100
13:37:05:292 -> 2071
13:37:05:284 -> 2093
13:37:05:302 -> 2063
13:37:05:312 -> 2072
13:37:05:322 -> 2000
13:37:05:332 -> 2037
13:37:05:342 -> 2130
13:37:05:352 -> 2080
13:37:05:362 -> 2119
13:37:05:402 -> 2053
13:37:05:403 -> 2126
13:37:05:403 -> 2126
13:37:05:403 -> 2348
13:37:05:413 -> 1814
13:37:05:422 -> 2212
13:37:05:432 -> 1971
13:37:05:442 -> 2020
13:37:05:453 -> 1942
13:37:05:462 -> 2151
13:37:05:478 -> 2025
13:37:05:484 -> 2209
13:37:05:492 -> 1974
13:37:05:503 -> 2386
13:37:05:512 -> 1747
13:37:05:522 -> 2087
13:37:05:533 -> 2064
13:37:05:543 -> 2194
13:37:05:553 -> 2063
13:37:05:563 -> 1999
13:37:05:573 -> 2153
13:37:05:583 -> 1879
13:37:05:593 -> 1900
13:37:05:613 -> 2311
13:37:05:615 -> 1932
13:37:05:623 -> 1901
13:37:05:634 -> 1719
13:37:05:643 -> 2217
13:37:05:653 -> 1942
13:37:05:663 -> 2095
13:37:05:673 -> 1806
13:37:05:683 -> 2335
13:37:05:693 -> 1902
13:37:05:703 -> 2238
13:37:05:713 -> 2058
13:37:05:723 -> 1599
13:37:05:733 -> 2030
13:37:05:744 -> 2313
13:37:05:754 -> 1513
13:37:05:763 -> 2429
13:37:05:774 -> 2060
13:37:05:784 -> 1846
13:37:05:794 -> 1841
13:37:05:804 -> 1950
13:37:05:814 -> 1908
13:37:05:825 -> 2188
13:37:05:834 -> 1942
13:37:05:844 -> 2167
13:37:05:854 -> 2034
13:37:05:864 -> 2117
13:37:05:892 -> 2350
13:37:05:899 -> 1928
13:37:05:899 -> 1772
13:37:05:928 -> 2283
13:37:05:930 -> 1811
13:37:05:930 -> 2291
13:37:05:934 -> 1981
13:37:05:944 -> 2226
13:37:05:954 -> 1981
13:37:05:964 -> 2160
13:37:05:975 -> 2053
13:37:05:985 -> 2327
13:37:05:995 -> 2033
13:37:06:005 -> 2118
13:37:06:015 -> 2117
13:37:06:025 -> 2173
13:37:06:036 -> 1883
13:37:06:046 -> 2246
13:37:06:055 -> 1964
13:37:06:065 -> 2177
13:37:06:075 -> 1944
13:37:06:086 -> 1982
13:37:06:095 -> 1900
13:37:06:105 -> 2135
13:37:06:115 -> 1944
13:37:06:125 -> 2047
13:37:06:135 -> 1609
13:37:06:145 -> 2284
13:37:06:155 -> 1852
13:37:06:169 -> 2324
13:37:06:176 -> 2097
13:37:06:186 -> 2275
13:37:06:197 -> 2131
13:37:06:205 -> 2118
13:37:06:216 -> 2034
13:37:06:226 -> 2222
13:37:06:236 -> 2102
13:37:06:246 -> 2099
13:37:06:256 -> 2423
13:37:06:266 -> 2440
13:37:06:276 -> 1930
13:37:06:286 -> 2326
13:37:06:296 -> 2055
13:37:06:306 -> 2316
13:37:06:316 -> 1869
13:37:06:326 -> 2176
13:37:06:336 -> 2122
13:37:06:346 -> 2274
13:37:06:357 -> 1852
13:37:06:367 -> 2221
13:37:06:377 -> 2296
13:37:06:386 -> 2122
13:37:06:396 -> 2379
13:37:06:412 -> 2271
13:37:06:417 -> 1948
13:37:06:427 -> 2310
13:37:06:472 -> 1981
13:37:06:473 -> 2287
13:37:06:473 -> 1639
13:37:06:473 -> 1308
13:37:06:477 -> 2218
13:37:06:509 -> 2293
13:37:06:521 -> 1989
13:37:06:521 -> 2118
13:37:06:521 -> 1933
13:37:06:551 -> 1978
13:37:06:551 -> 2176
13:37:06:551 -> 2020
13:37:06:560 -> 2312
13:37:06:567 -> 2131
13:37:06:577 -> 2043
13:37:06:594 -> 2088
13:37:06:598 -> 1892
13:37:06:609 -> 2246
13:37:06:617 -> 1892
13:37:06:627 -> 2083
13:37:06:638 -> 2075
13:37:06:648 -> 2002
13:37:06:658 -> 1795
13:37:06:668 -> 2145
13:37:06:678 -> 2101
13:37:06:688 -> 2047
13:37:06:698 -> 2041
13:37:06:712 -> 2173
13:37:06:718 -> 2039
13:37:06:728 -> 2284
13:37:06:739 -> 1763
13:37:06:748 -> 2175
13:37:06:758 -> 2257
13:37:06:768 -> 1946
13:37:06:778 -> 1882
13:37:06:788 -> 2099
13:37:06:798 -> 2090
13:37:06:808 -> 2223
13:37:06:818 -> 2046
13:37:06:828 -> 2092
13:37:06:838 -> 1997
13:37:06:848 -> 2217
13:37:06:859 -> 1923
13:37:06:868 -> 2205
13:37:06:878 -> 1848
13:37:06:888 -> 2304
13:37:06:899 -> 2183
13:37:06:909 -> 2091
13:37:06:919 -> 2044
13:37:06:933 -> 2278
13:37:06:939 -> 2066
13:37:06:949 -> 2075
13:37:06:959 -> 2061
13:37:06:969 -> 2300
13:37:06:996 -> 2150
13:37:06:997 -> 2082
13:37:06:999 -> 2261
13:37:07:010 -> 2082
13:37:07:019 -> 2098
13:37:07:032 -> 2053
13:37:07:039 -> 2086
13:37:07:050 -> 2106
13:37:07:060 -> 2070
13:37:07:069 -> 2077
13:37:07:080 -> 2062
13:37:07:090 -> 2156
13:37:07:099 -> 2079
13:37:07:109 -> 2102
13:37:07:120 -> 2102
13:37:07:130 -> 2084
13:37:07:141 -> 2108
13:37:07:151 -> 2025
13:37:07:161 -> 2097
13:37:07:170 -> 2083
13:37:07:180 -> 2094
13:37:07:205 -> 2046
13:37:07:206 -> 2094
13:37:07:213 -> 2056
13:37:07:220 -> 2118
13:37:07:230 -> 2064
13:37:07:240 -> 2103
13:37:07:250 -> 2076
13:37:07:260 -> 2084
13:37:07:270 -> 2044
13:37:07:280 -> 2091
13:37:07:291 -> 2046
13:37:07:301 -> 2132
13:37:07:310 -> 2018
13:37:07:320 -> 2132
13:37:07:331 -> 1989
13:37:07:341 -> 2213
13:37:07:351 -> 1929
13:37:07:361 -> 2191
13:37:07:372 -> 2009
13:37:07:381 -> 2176
13:37:07:391 -> 2018
13:37:07:401 -> 2131
13:37:07:411 -> 2010
13:37:07:421 -> 2177
13:37:07:431 -> 2015
13:37:07:447 -> 2134
13:37:07:451 -> 2029
13:37:07:461 -> 2136
13:37:07:471 -> 2068
13:37:07:481 -> 2095
13:37:07:491 -> 2087
13:37:07:521 -> 2092
13:37:07:523 -> 2105
13:37:07:523 -> 2093
13:37:07:532 -> 2112
13:37:07:542 -> 2108
13:37:07:552 -> 2077
13:37:07:562 -> 2088
13:37:07:572 -> 2071
13:37:07:582 -> 2086
13:37:07:592 -> 2052
13:37:07:602 -> 2098
13:37:07:612 -> 2077
13:37:07:622 -> 2084
13:37:07:632 -> 2114
13:37:07:642 -> 2083
13:37:07:652 -> 2089
13:37:07:662 -> 2116
13:37:07:672 -> 2096
13:37:07:682 -> 2165
13:37:07:692 -> 2116
13:37:07:713 -> 2113
13:37:07:715 -> 2078
13:37:07:723 -> 2138
13:37:07:733 -> 2053
13:37:07:742 -> 2139
13:37:07:753 -> 2070
13:37:07:762 -> 2130
13:37:07:773 -> 2041
13:37:07:783 -> 2161
13:37:07:793 -> 2078
13:37:07:803 -> 2134
13:37:07:813 -> 2062
13:37:07:823 -> 2125
13:37:07:833 -> 2072
13:37:07:843 -> 2122
13:37:07:853 -> 2073
13:37:07:863 -> 2103
13:37:07:873 -> 2052
13:37:07:883 -> 2074
13:37:07:898 -> 1969
13:37:07:903 -> 2146
13:37:07:913 -> 2014
13:37:07:925 -> 2126
13:37:07:933 -> 2017
13:37:07:945 -> 2135
13:37:07:953 -> 2017
13:37:07:963 -> 2104
13:37:07:974 -> 1956
13:37:07:983 -> 2142
13:37:07:994 -> 1987
13:37:08:004 -> 2139
13:37:08:014 -> 1977
13:37:08:054 -> 2165
13:37:08:057 -> 1965
13:37:08:057 -> 2134
13:37:08:057 -> 1962
13:37:08:065 -> 2173
13:37:08:074 -> 1958
13:37:08:084 -> 2129
13:37:08:094 -> 1933
13:37:08:104 -> 2123
13:37:08:114 -> 1953
13:37:08:125 -> 2099
13:37:08:134 -> 1947
13:37:08:151 -> 2117
13:37:08:155 -> 1939
13:37:08:197 -> 2129
13:37:08:197 -> 1962
13:37:08:197 -> 2125
13:37:08:197 -> 1974
13:37:08:231 -> 2154
13:37:08:231 -> 1959
13:37:08:231 -> 2159
13:37:08:278 -> 1927
13:37:08:278 -> 2182
13:37:08:288 -> 1964
13:37:08:288 -> 2188
13:37:08:288 -> 1952
13:37:08:288 -> 2216
13:37:08:312 -> 1918
13:37:08:312 -> 2225
13:37:08:317 -> 1927
13:37:08:325 -> 2229
13:37:08:335 -> 1931
13:37:08:345 -> 2227
13:37:08:355 -> 1931
13:37:08:365 -> 2228
13:37:08:376 -> 1914
13:37:08:385 -> 2216
13:37:08:395 -> 1959
13:37:08:406 -> 2215
13:37:08:415 -> 1942
13:37:08:425 -> 2226
13:37:08:435 -> 1946
13:37:08:446 -> 2222
13:37:08:458 -> 1953
13:37:08:466 -> 2218
13:37:08:476 -> 1979
13:37:08:493 -> 2243
13:37:08:500 -> 1962
13:37:08:506 -> 2227
