16:30:56:624 -> 2426.00
16:30:56:624 -> 2525.00
16:30:56:624 -> 2408.00
16:30:56:624 -> 2369.00
16:30:56:625 -> 2394.00
16:30:56:625 -> 2400.00
16:30:56:626 -> 2501.00
16:30:56:627 -> 2560.00
16:30:56:629 -> 2573.00
16:30:56:630 -> 2494.00
16:30:56:659 -> 2503.00
16:30:56:659 -> 2425.00
16:30:56:659 -> 2509.00
16:30:56:659 -> 2594.00
16:30:56:659 -> 2673.00
16:30:56:659 -> 2564.00
16:30:56:659 -> 2413.00
16:30:56:659 -> 2455.00
16:30:56:659 -> 2383.00
16:30:56:659 -> 2413.00
16:30:56:659 -> 2450.00
16:30:56:659 -> 2541.00
16:30:56:662 -> 2593.00
16:30:56:662 -> 2462.00
16:30:56:662 -> 2480.00
16:30:56:662 -> 2582.00
16:30:56:662 -> 2416.00
16:30:56:662 -> 2551.00
16:30:56:662 -> 2545.00
16:30:56:662 -> 2508.00
16:30:56:662 -> 2142.00
16:30:56:662 -> 2149.00
16:30:56:662 -> 2387.00
16:30:56:662 -> 2393.00
16:30:56:662 -> 2317.00
16:30:56:662 -> 2135.00
16:30:56:663 -> 2335.00
16:30:56:663 -> 2631.00
16:30:56:664 -> 2652.00
16:30:56:666 -> 2593.00
16:30:56:667 -> 2573.00
16:30:56:668 -> 2670.00
16:30:56:669 -> 2636.00
16:30:56:670 -> 2581.00
16:30:56:671 -> 2577.00
16:30:56:673 -> 2470.00
16:30:56:674 -> 2382.00
16:30:56:675 -> 2464.00
16:30:56:676 -> 2367.00
16:30:56:677 -> 2321.00
16:30:56:679 -> 2322.00
16:30:56:681 -> 2334.00
16:30:56:682 -> 2444.00
16:30:56:684 -> 2639.00
16:30:56:684 -> 2480.00
16:30:56:685 -> 2389.00
16:30:56:686 -> 2464.00
16:30:56:687 -> 2586.00
16:30:56:688 -> 2662.00
16:30:56:689 -> 2573.00
16:30:56:690 -> 2581.00
16:30:56:692 -> 2479.00
16:30:56:693 -> 2480.00
16:30:56:694 -> 2565.00
16:30:56:700 -> 2455.00
16:30:56:700 -> 2352.00
16:30:56:700 -> 2367.00
16:30:56:700 -> 2424.00
16:30:56:701 -> 2481.00
16:30:56:701 -> 2571.00
16:30:56:702 -> 2380.00
16:30:56:704 -> 2359.00
16:30:56:705 -> 2476.00
16:30:56:707 -> 2512.00
16:30:56:710 -> 2499.00
16:30:56:710 -> 2549.00
16:30:56:710 -> 2423.00
16:30:56:711 -> 2445.00
16:30:56:712 -> 2552.00
16:30:56:716 -> 2654.00
16:30:56:716 -> 2446.00
16:30:56:740 -> 2421.00
16:30:56:740 -> 2493.00
16:30:56:740 -> 2501.00
16:30:56:740 -> 2532.00
16:30:56:740 -> 2498.00
16:30:56:740 -> 2364.00
16:30:56:740 -> 2326.00
16:30:56:740 -> 2443.00
16:30:56:740 -> 2340.00
16:30:56:740 -> 2221.00
16:30:56:740 -> 2505.00
16:30:56:740 -> 2484.00
16:30:56:740 -> 2573.00
16:30:56:740 -> 2538.00
16:30:56:740 -> 2582.00
16:30:56:740 -> 2538.00
16:30:56:740 -> 2445.00
16:30:56:740 -> 2574.00
16:30:56:740 -> 2458.00
16:30:56:741 -> 2509.00
16:30:56:741 -> 2466.00
16:30:56:744 -> 2399.00
16:30:56:744 -> 2441.00
16:30:56:744 -> 2417.00
16:30:56:745 -> 2431.00
16:30:56:745 -> 2481.00
16:30:56:746 -> 2447.00
16:30:56:748 -> 2487.00
16:30:56:749 -> 2660.00
16:30:56:750 -> 2503.00
16:30:56:751 -> 2486.00
16:30:56:752 -> 2435.00
16:30:56:753 -> 2454.00
16:30:56:755 -> 2400.00
16:30:56:756 -> 2503.00
16:30:56:757 -> 2423.00
16:30:56:758 -> 2390.00
16:30:56:759 -> 2368.00
16:30:56:761 -> 2657.00
16:30:56:762 -> 2624.00
16:30:56:763 -> 2371.00
16:30:56:764 -> 2346.00
16:30:56:765 -> 2401.00
16:30:56:767 -> 2530.00
16:30:56:768 -> 2579.00
16:30:56:769 -> 2607.00
16:30:56:770 -> 2685.00
16:30:56:771 -> 2562.00
16:30:56:773 -> 2472.00
16:30:56:774 -> 2477.00
16:30:56:775 -> 2378.00
16:30:56:776 -> 2483.00
16:30:56:777 -> 2519.00
16:30:56:781 -> 2516.00
16:30:56:781 -> 2455.00
16:30:56:782 -> 2453.00
16:30:56:782 -> 2511.00
16:30:56:784 -> 2539.00
16:30:56:784 -> 2545.00
16:30:56:786 -> 2503.00
16:30:56:787 -> 2507.00
16:30:56:788 -> 2532.00
16:30:56:789 -> 2532.00
16:30:56:790 -> 2464.00
16:30:56:799 -> 2440.00
16:30:56:799 -> 2464.00
16:30:56:799 -> 2514.00
16:30:56:799 -> 2650.00
16:30:56:799 -> 2385.00
16:30:56:799 -> 2407.00
16:30:56:800 -> 2381.00
16:30:56:800 -> 2350.00
16:30:56:801 -> 2499.00
16:30:56:802 -> 2444.00
16:30:56:804 -> 2473.00
16:30:56:805 -> 2524.00
16:30:56:806 -> 2551.00
16:30:56:807 -> 2561.00
16:30:56:808 -> 2444.00
16:30:56:809 -> 2499.00
16:30:56:811 -> 2546.00
16:30:56:812 -> 2498.00
16:30:56:813 -> 2470.00
16:30:56:814 -> 2440.00
16:30:56:815 -> 2406.00
16:30:56:817 -> 2302.00
16:30:56:818 -> 2249.00
16:30:56:819 -> 2320.00
16:30:56:820 -> 2226.00
16:30:56:821 -> 2394.00
16:30:56:823 -> 2464.00
16:30:56:824 -> 2545.00
16:30:56:825 -> 2490.00
16:30:56:826 -> 2346.00
16:30:56:827 -> 2532.00
16:30:56:828 -> 2719.00
16:30:56:830 -> 2710.00
16:30:56:831 -> 2602.00
16:30:56:832 -> 2593.00
16:30:56:833 -> 2539.00
16:30:56:834 -> 2443.00
16:30:56:836 -> 2469.00
16:30:56:837 -> 2561.00
16:30:56:838 -> 2343.00
16:30:56:878 -> 2318.00
16:30:56:878 -> 2297.00
16:30:56:878 -> 2419.00
16:30:56:879 -> 2302.00
16:30:56:879 -> 2490.00
16:30:56:879 -> 2600.00
16:30:56:879 -> 2706.00
16:30:56:879 -> 2642.00
16:30:56:879 -> 2563.00
16:30:56:879 -> 2629.00
16:30:56:879 -> 2612.00
16:30:56:879 -> 2542.00
16:30:56:879 -> 2525.00
16:30:56:879 -> 2539.00
16:30:56:879 -> 2536.00
16:30:56:879 -> 2551.00
16:30:56:879 -> 2457.00
16:30:56:879 -> 2377.00
16:30:56:879 -> 2497.00
16:30:56:879 -> 2535.00
16:30:56:879 -> 2539.00
16:30:56:879 -> 2458.00
16:30:56:879 -> 2482.00
16:30:56:879 -> 2596.00
16:30:56:879 -> 2579.00
16:30:56:879 -> 2470.00
16:30:56:879 -> 2441.00
16:30:56:879 -> 2520.00
16:30:56:879 -> 2465.00
16:30:56:879 -> 2496.00
16:30:56:879 -> 2644.00
16:30:56:879 -> 2442.00
16:30:56:879 -> 2437.00
16:30:56:879 -> 2484.00
16:30:56:880 -> 2478.00
16:30:56:881 -> 2487.00
16:30:56:882 -> 2433.00
16:30:56:883 -> 2294.00
16:30:56:884 -> 2410.00
16:30:56:887 -> 2467.00
16:30:56:887 -> 2531.00
16:30:56:893 -> 2531.00
16:30:56:893 -> 2483.00
16:30:56:893 -> 2565.00
16:30:56:893 -> 2582.00
16:30:56:897 -> 2538.00
16:30:56:897 -> 2520.00
16:30:56:906 -> 2513.00
16:30:56:906 -> 2490.00
16:30:56:906 -> 2371.00
16:30:56:906 -> 2274.00
16:30:56:906 -> 2345.00
16:30:56:906 -> 2428.00
16:30:56:906 -> 2403.00
16:30:56:906 -> 2478.00
16:30:56:906 -> 2597.00
16:30:56:906 -> 2624.00
16:30:56:913 -> 2644.00
16:30:56:913 -> 2608.00
16:30:56:913 -> 2587.00
16:30:56:913 -> 2496.00
16:30:56:913 -> 2541.00
16:30:56:913 -> 2508.00
16:30:56:923 -> 2417.00
16:30:56:923 -> 2381.00
16:30:56:923 -> 2457.00
16:30:56:923 -> 2368.00
16:30:56:923 -> 2435.00
16:30:56:923 -> 2356.00
16:30:56:923 -> 2521.00
16:30:56:923 -> 2740.00
16:30:56:936 -> 2620.00
16:30:56:936 -> 2503.00
16:30:56:936 -> 2446.00
16:30:56:936 -> 2542.00
16:30:56:936 -> 2498.00
16:30:56:936 -> 2481.00
16:30:56:936 -> 2397.00
16:30:56:936 -> 2588.00
16:30:56:936 -> 2645.00
16:30:56:936 -> 2489.00
16:30:56:936 -> 2512.00
16:30:56:937 -> 2468.00
16:30:56:940 -> 2491.00
16:30:56:940 -> 2530.00
16:30:56:940 -> 2527.00
16:30:56:941 -> 2605.00
16:30:56:943 -> 2525.00
16:30:56:944 -> 2272.00
16:30:56:945 -> 2377.00
16:30:56:946 -> 2537.00
16:30:56:948 -> 2553.00
16:30:56:959 -> 2624.00
16:30:56:959 -> 2613.00
16:30:56:959 -> 2394.00
16:30:56:959 -> 2540.00
16:30:56:959 -> 2523.00
16:30:56:959 -> 2565.00
16:30:56:959 -> 2611.00
16:30:56:959 -> 2551.00
16:30:56:959 -> 2481.00
16:30:56:982 -> 2482.00
16:30:56:982 -> 2485.00
16:30:56:982 -> 2451.00
16:30:56:982 -> 2538.00
16:30:56:982 -> 2567.00
16:30:56:982 -> 2575.00
16:30:56:982 -> 2568.00
16:30:56:982 -> 2506.00
16:30:56:982 -> 2515.00
16:30:56:982 -> 2502.00
16:30:56:982 -> 2416.00
16:30:56:982 -> 2430.00
16:30:56:982 -> 2389.00
16:30:56:982 -> 2405.00
16:30:56:982 -> 2397.00
16:30:56:982 -> 2341.00
16:30:56:982 -> 2364.00
16:30:56:982 -> 2377.00
16:30:56:982 -> 2481.00
16:30:56:982 -> 2547.00
16:30:56:984 -> 2653.00
16:30:56:989 -> 2670.00
16:30:56:989 -> 2585.00
16:30:56:989 -> 2645.00
16:30:56:989 -> 2669.00
16:30:56:989 -> 2530.00
16:30:56:991 -> 2547.00
16:30:56:992 -> 2555.00
16:30:56:993 -> 2536.00
16:30:56:994 -> 2490.00
16:30:56:998 -> 2331.00
16:30:56:998 -> 2397.00
16:30:56:998 -> 2507.00
16:30:57:053 -> 2514.00
16:30:57:053 -> 2432.00
16:30:57:053 -> 2521.00
16:30:57:053 -> 2665.00
16:30:57:053 -> 2580.00
16:30:57:053 -> 2537.00
16:30:57:053 -> 2549.00
16:30:57:053 -> 2542.00
16:30:57:053 -> 2511.00
16:30:57:053 -> 2532.00
16:30:57:053 -> 2519.00
16:30:57:053 -> 2486.00
16:30:57:053 -> 2422.00
16:30:57:053 -> 2350.00
16:30:57:053 -> 2401.00
16:30:57:053 -> 2489.00
16:30:57:053 -> 2480.00
16:30:57:053 -> 2374.00
16:30:57:053 -> 2353.00
16:30:57:053 -> 2466.00
16:30:57:053 -> 2539.00
16:30:57:053 -> 2626.00
16:30:57:053 -> 2549.00
16:30:57:053 -> 2534.00
16:30:57:053 -> 2615.00
16:30:57:053 -> 2609.00
16:30:57:053 -> 2628.00
16:30:57:053 -> 2566.00
16:30:57:053 -> 2493.00
16:30:57:053 -> 2444.00
16:30:57:053 -> 2522.00
16:30:57:053 -> 2438.00
16:30:57:053 -> 2274.00
16:30:57:053 -> 2473.00
16:30:57:053 -> 2509.00
16:30:57:053 -> 2503.00
16:30:57:053 -> 2535.00
16:30:57:053 -> 2560.00
16:30:57:053 -> 2536.00
16:30:57:053 -> 2479.00
16:30:57:053 -> 2501.00
16:30:57:053 -> 2506.00
16:30:57:053 -> 2603.00
16:30:57:053 -> 2658.00
16:30:57:053 -> 2524.00
16:30:57:053 -> 2387.00
16:30:57:109 -> 2438.00
16:30:57:109 -> 2470.00
16:30:57:109 -> 2516.00
16:30:57:109 -> 2511.00
16:30:57:109 -> 2467.00
16:30:57:109 -> 2365.00
16:30:57:109 -> 2389.00
16:30:57:109 -> 2473.00
16:30:57:109 -> 2458.00
16:30:57:109 -> 2458.00
16:30:57:109 -> 2587.00
16:30:57:109 -> 2568.00
16:30:57:109 -> 2596.00
16:30:57:109 -> 2634.00
16:30:57:109 -> 2579.00
16:30:57:109 -> 2499.00
16:30:57:109 -> 2555.00
16:30:57:109 -> 2482.00
16:30:57:109 -> 2486.00
16:30:57:109 -> 2553.00
16:30:57:109 -> 2499.00
16:30:57:109 -> 2477.00
16:30:57:109 -> 2436.00
16:30:57:109 -> 2565.00
16:30:57:109 -> 2472.00
16:30:57:109 -> 2493.00
16:30:57:109 -> 2467.00
16:30:57:109 -> 2469.00
16:30:57:109 -> 2546.00
16:30:57:109 -> 2545.00
16:30:57:109 -> 2556.00
16:30:57:192 -> 2543.00
16:30:57:192 -> 2505.00
16:30:57:192 -> 2553.00
16:30:57:192 -> 2543.00
16:30:57:192 -> 2481.00
16:30:57:192 -> 2493.00
16:30:57:192 -> 2439.00
16:30:57:192 -> 2451.00
16:30:57:192 -> 2414.00
16:30:57:192 -> 2487.00
16:30:57:192 -> 2574.00
16:30:57:192 -> 2540.00
16:30:57:192 -> 2589.00
16:30:57:192 -> 2578.00
16:30:57:192 -> 2593.00
16:30:57:192 -> 2623.00
16:30:57:192 -> 2659.00
16:30:57:192 -> 2542.00
16:30:57:192 -> 2346.00
16:30:57:192 -> 2459.00
16:30:57:192 -> 2563.00
16:30:57:192 -> 2566.00
16:30:57:192 -> 2494.00
16:30:57:192 -> 2452.00
16:30:57:192 -> 2475.00
16:30:57:192 -> 2500.00
16:30:57:192 -> 2408.00
16:30:57:192 -> 2395.00
16:30:57:192 -> 2389.00
16:30:57:192 -> 2361.00
16:30:57:192 -> 2391.00
16:30:57:192 -> 2383.00
16:30:57:192 -> 2406.00
16:30:57:192 -> 2524.00
16:30:57:192 -> 2592.00
16:30:57:192 -> 2725.00
16:30:57:192 -> 2693.00
16:30:57:192 -> 2562.00
16:30:57:192 -> 2536.00
16:30:57:192 -> 2494.00
16:30:57:192 -> 2518.00
16:30:57:192 -> 2554.00
16:30:57:192 -> 2557.00
16:30:57:192 -> 2529.00
16:30:57:192 -> 2588.00
16:30:57:192 -> 2563.00
16:30:57:192 -> 2577.00
16:30:57:192 -> 2448.00
16:30:57:192 -> 2519.00
16:30:57:192 -> 2621.00
16:30:57:192 -> 2592.00
16:30:57:192 -> 2473.00
16:30:57:192 -> 2491.00
16:30:57:192 -> 2566.00
16:30:57:192 -> 2562.00
16:30:57:192 -> 2560.00
16:30:57:192 -> 2498.00
16:30:57:192 -> 2459.00
16:30:57:192 -> 2519.00
16:30:57:192 -> 2560.00
16:30:57:192 -> 2516.00
16:30:57:192 -> 2478.00
16:30:57:192 -> 2544.00
16:30:57:222 -> 2588.00
16:30:57:222 -> 2547.00
16:30:57:222 -> 2535.00
16:30:57:222 -> 2531.00
16:30:57:222 -> 2570.00
16:30:57:222 -> 2510.00
16:30:57:222 -> 2437.00
16:30:57:222 -> 2577.00
16:30:57:222 -> 2352.00
16:30:57:222 -> 2454.00
16:30:57:222 -> 2503.00
16:30:57:222 -> 2500.00
16:30:57:222 -> 2469.00
16:30:57:222 -> 2373.00
16:30:57:222 -> 2346.00
16:30:57:222 -> 2356.00
16:30:57:222 -> 2442.00
16:30:57:222 -> 2425.00
16:30:57:222 -> 2384.00
16:30:57:222 -> 2468.00
16:30:57:222 -> 2515.00
16:30:57:222 -> 2504.00
16:30:57:222 -> 2487.00
16:30:57:222 -> 2462.00
16:30:57:222 -> 2497.00
16:30:57:222 -> 2439.00
16:30:57:222 -> 2488.00
16:30:57:222 -> 2684.00
16:30:57:222 -> 2739.00
16:30:57:222 -> 2625.00
16:30:57:222 -> 2588.00
16:30:57:222 -> 2595.00
16:30:57:222 -> 2585.00
16:30:57:222 -> 2611.00
16:30:57:222 -> 2609.00
16:30:57:222 -> 2645.00
16:30:57:222 -> 2611.00
16:30:57:222 -> 2558.00
16:30:57:222 -> 2535.00
16:30:57:222 -> 2526.00
16:30:57:222 -> 2479.00
16:30:57:222 -> 2529.00
16:30:57:222 -> 2531.00
16:30:57:222 -> 2605.00
16:30:57:222 -> 2550.00
16:30:57:222 -> 2568.00
16:30:57:222 -> 2477.00
16:30:57:222 -> 2487.00
16:30:57:232 -> 2570.00
16:30:57:232 -> 2384.00
16:30:57:232 -> 2402.00
16:30:57:232 -> 2499.00
16:30:57:232 -> 2510.00
16:30:57:232 -> 2508.00
16:30:57:232 -> 2528.00
16:30:57:232 -> 2509.00
16:30:57:232 -> 2512.00
16:30:57:249 -> 2579.00
16:30:57:249 -> 2552.00
16:30:57:249 -> 2569.00
16:30:57:249 -> 2605.00
16:30:57:249 -> 2586.00
16:30:57:249 -> 2533.00
16:30:57:249 -> 2474.00
16:30:57:249 -> 2510.00
16:30:57:249 -> 2498.00
16:30:57:249 -> 2549.00
16:30:57:249 -> 2500.00
16:30:57:249 -> 2445.00
16:30:57:249 -> 2582.00
16:30:57:249 -> 2665.00
16:30:57:270 -> 2543.00
16:30:57:270 -> 2570.00
16:30:57:270 -> 2568.00
16:30:57:270 -> 2462.00
16:30:57:270 -> 2422.00
16:30:57:270 -> 2499.00
16:30:57:270 -> 2457.00
16:30:57:270 -> 2305.00
16:30:57:270 -> 2478.00
16:30:57:270 -> 2568.00
16:30:57:270 -> 2589.00
16:30:57:270 -> 2589.00
16:30:57:270 -> 2566.00
16:30:57:270 -> 2563.00
16:30:57:270 -> 2499.00
16:30:57:270 -> 2494.00
16:30:57:270 -> 2560.00
16:30:57:270 -> 2575.00
16:30:57:276 -> 2528.00
16:30:57:276 -> 2544.00
16:30:57:276 -> 2402.00
16:30:57:276 -> 2378.00
16:30:57:276 -> 2470.00
16:30:57:280 -> 2550.00
16:30:57:280 -> 2616.00
16:30:57:280 -> 2438.00
16:30:57:291 -> 2525.00
16:30:57:291 -> 2639.00
16:30:57:291 -> 2511.00
16:30:57:291 -> 2613.00
16:30:57:291 -> 2582.00
16:30:57:291 -> 2638.00
16:30:57:291 -> 2597.00
16:30:57:291 -> 2568.00
16:30:57:291 -> 2562.00
16:30:57:293 -> 2569.00
16:30:57:293 -> 2535.00
16:30:57:294 -> 2569.00
16:30:57:308 -> 2444.00
16:30:57:308 -> 2464.00
16:30:57:308 -> 2512.00
16:30:57:308 -> 2571.00
16:30:57:308 -> 2494.00
16:30:57:308 -> 2437.00
16:30:57:308 -> 2499.00
16:30:57:308 -> 2571.00
16:30:57:308 -> 2580.00
16:30:57:308 -> 2523.00
16:30:57:308 -> 2521.00
16:30:57:308 -> 2574.00
16:30:57:313 -> 2567.00
16:30:57:313 -> 2510.00
16:30:57:313 -> 2464.00
16:30:57:313 -> 2519.00
16:30:57:320 -> 2560.00
16:30:57:320 -> 2582.00
16:30:57:320 -> 2486.00
16:30:57:320 -> 2479.00
16:30:57:320 -> 2431.00
16:30:57:320 -> 2393.00
16:30:57:328 -> 2533.00
16:30:57:328 -> 2515.00
16:30:57:328 -> 2465.00
16:30:57:328 -> 2481.00
16:30:57:328 -> 2615.00
16:30:57:328 -> 2626.00
16:30:57:355 -> 2684.00
16:30:57:355 -> 2664.00
16:30:57:355 -> 2616.00
16:30:57:355 -> 2454.00
16:30:57:355 -> 2584.00
16:30:57:355 -> 2590.00
16:30:57:355 -> 2335.00
16:30:57:355 -> 2433.00
16:30:57:355 -> 2445.00
16:30:57:355 -> 2480.00
16:30:57:355 -> 2320.00
16:30:57:355 -> 2375.00
16:30:57:355 -> 2688.00
16:30:57:355 -> 2783.00
16:30:57:355 -> 2741.00
16:30:57:355 -> 2602.00
16:30:57:355 -> 2599.00
16:30:57:355 -> 2597.00
16:30:57:355 -> 2631.00
16:30:57:355 -> 2633.00
16:30:57:355 -> 2554.00
16:30:57:355 -> 2601.00
16:30:57:355 -> 2486.00
16:30:57:366 -> 2464.00
16:30:57:366 -> 2625.00
16:30:57:366 -> 2549.00
16:30:57:366 -> 2630.00
16:30:57:366 -> 2588.00
16:30:57:366 -> 2638.00
16:30:57:366 -> 2548.00
16:30:57:366 -> 2512.00
16:30:57:366 -> 2608.00
16:30:57:374 -> 2630.00
16:30:57:374 -> 2642.00
16:30:57:374 -> 2516.00
16:30:57:374 -> 2539.00
16:30:57:374 -> 2582.00
16:30:57:374 -> 2462.00
16:30:57:374 -> 2574.00
16:30:57:380 -> 2578.00
16:30:57:380 -> 2557.00
16:30:57:380 -> 2542.00
16:30:57:380 -> 2482.00
16:30:57:380 -> 2361.00
16:30:57:407 -> 2425.00
16:30:57:407 -> 2518.00
16:30:57:407 -> 2522.00
16:30:57:407 -> 2442.00
16:30:57:407 -> 2486.00
16:30:57:407 -> 2599.00
16:30:57:407 -> 2626.00
16:30:57:407 -> 2669.00
16:30:57:407 -> 2667.00
16:30:57:407 -> 2628.00
16:30:57:407 -> 2507.00
16:30:57:407 -> 2448.00
16:30:57:407 -> 2504.00
16:30:57:407 -> 2558.00
16:30:57:407 -> 2468.00
16:30:57:407 -> 2465.00
16:30:57:407 -> 2507.00
16:30:57:407 -> 2602.00
16:30:57:407 -> 2618.00
16:30:57:407 -> 2630.00
16:30:57:407 -> 2640.00
16:30:57:407 -> 2629.00
16:30:57:407 -> 2699.00
16:30:57:414 -> 2669.00
16:30:57:414 -> 2395.00
16:30:57:414 -> 2376.00
16:30:57:414 -> 2606.00
16:30:57:414 -> 2590.00
16:30:57:414 -> 2534.00
16:30:57:426 -> 2565.00
16:30:57:426 -> 2596.00
16:30:57:426 -> 2622.00
16:30:57:426 -> 2621.00
16:30:57:426 -> 2481.00
16:30:57:426 -> 2416.00
16:30:57:426 -> 2486.00
16:30:57:426 -> 2498.00
16:30:57:426 -> 2541.00
16:30:57:436 -> 2556.00
16:30:57:436 -> 2631.00
16:30:57:436 -> 2610.00
16:30:57:436 -> 2629.00
16:30:57:436 -> 2629.00
16:30:57:436 -> 2438.00
16:30:57:436 -> 2546.00
16:30:57:436 -> 2534.00
16:30:57:436 -> 2484.00
16:30:57:439 -> 2422.00
16:30:57:439 -> 2499.00
16:30:57:439 -> 2523.00
16:30:57:446 -> 2534.00
16:30:57:446 -> 2548.00
16:30:57:446 -> 2547.00
16:30:57:446 -> 2563.00
16:30:57:446 -> 2480.00
16:30:57:449 -> 2527.00
16:30:57:449 -> 2497.00
16:30:57:449 -> 2546.00
16:30:57:450 -> 2619.00
16:30:57:454 -> 2656.00
16:30:57:454 -> 2544.00
16:30:57:454 -> 2540.00
16:30:57:455 -> 2445.00
16:30:57:456 -> 2433.00
16:30:57:459 -> 2616.00
16:30:57:459 -> 2473.00
16:30:57:459 -> 2489.00
16:30:57:464 -> 2557.00
16:30:57:464 -> 2489.00
16:30:57:464 -> 2542.00
16:30:57:466 -> 2556.00
16:30:57:466 -> 2577.00
16:30:57:466 -> 2633.00
16:30:57:471 -> 2656.00
16:30:57:471 -> 2694.00
16:30:57:471 -> 2524.00
16:30:57:472 -> 2611.00
16:30:57:479 -> 2622.00
16:30:57:479 -> 2533.00
16:30:57:479 -> 2501.00
16:30:57:479 -> 2457.00
16:30:57:479 -> 2566.00
16:30:57:479 -> 2489.00
16:30:57:483 -> 2445.00
16:30:57:483 -> 2489.00
16:30:57:483 -> 2571.00
16:30:57:483 -> 2634.00
16:30:57:484 -> 2556.00
16:30:57:486 -> 2487.00
16:30:57:491 -> 2585.00
16:30:57:491 -> 2561.00
16:30:57:491 -> 2614.00
16:30:57:491 -> 2625.00
16:30:57:496 -> 2643.00
16:30:57:496 -> 2490.00
16:30:57:496 -> 2487.00
16:30:57:496 -> 2453.00
16:30:57:496 -> 2524.00
16:30:57:499 -> 2494.00
16:30:57:499 -> 2463.00
16:30:57:503 -> 2462.00
16:30:57:503 -> 2527.00
16:30:57:503 -> 2551.00
16:30:57:508 -> 2604.00
16:30:57:508 -> 2729.00
16:30:57:508 -> 2657.00
16:30:57:508 -> 2564.00
16:30:57:510 -> 2534.00
16:30:57:510 -> 2593.00
16:30:57:511 -> 2639.00
16:30:57:513 -> 2588.00
16:30:57:513 -> 2601.00
16:30:57:514 -> 2509.00
16:30:57:515 -> 2594.00
16:30:57:516 -> 2630.00
16:30:57:517 -> 2579.00
16:30:57:519 -> 2488.00
16:30:57:520 -> 2426.00
16:30:57:521 -> 2526.00
16:30:57:522 -> 2532.00
16:30:57:523 -> 2470.00
16:30:57:525 -> 2447.00
16:30:57:527 -> 2635.00
16:30:57:527 -> 2485.00
16:30:57:533 -> 2434.00
16:30:57:533 -> 2541.00
16:30:57:533 -> 2627.00
16:30:57:533 -> 2659.00
16:30:57:536 -> 2627.00
16:30:57:536 -> 2531.00
16:30:57:536 -> 2552.00
16:30:57:541 -> 2575.00
16:30:57:541 -> 2552.00
16:30:57:541 -> 2560.00
16:30:57:541 -> 2568.00
16:30:57:544 -> 2565.00
16:30:57:544 -> 2545.00
16:30:57:544 -> 2480.00
16:30:57:557 -> 2587.00
16:30:57:557 -> 2610.00
16:30:57:557 -> 2556.00
16:30:57:557 -> 2598.00
16:30:57:557 -> 2564.00
16:30:57:557 -> 2622.00
16:30:57:557 -> 2570.00
16:30:57:557 -> 2516.00
16:30:57:557 -> 2433.00
16:30:57:557 -> 2543.00
16:30:57:557 -> 2495.00
16:30:57:560 -> 2584.00
16:30:57:560 -> 2686.00
16:30:57:572 -> 2489.00
16:30:57:572 -> 2553.00
16:30:57:572 -> 2587.00
16:30:57:572 -> 2583.00
16:30:57:572 -> 2580.00
16:30:57:572 -> 2497.00
16:30:57:572 -> 2544.00
16:30:57:572 -> 2533.00
16:30:57:572 -> 2533.00
16:30:57:572 -> 2538.00
16:30:57:572 -> 2586.00
16:30:57:577 -> 2628.00
16:30:57:577 -> 2581.00
16:30:57:577 -> 2580.00
16:30:57:577 -> 2633.00
16:30:57:580 -> 2649.00
16:30:57:580 -> 2650.00
16:30:57:580 -> 2452.00
16:30:57:582 -> 2545.00
16:30:57:583 -> 2487.00
16:30:57:584 -> 2470.00
16:30:57:585 -> 2573.00
16:30:57:586 -> 2564.00
16:30:57:588 -> 2444.00
16:30:57:589 -> 2494.00
16:30:57:590 -> 2546.00
16:30:57:591 -> 2651.00
16:30:57:592 -> 2665.00
16:30:57:594 -> 2563.00
16:30:57:595 -> 2546.00
16:30:57:596 -> 2537.00
16:30:57:597 -> 2550.00
16:30:57:598 -> 2577.00
16:30:57:599 -> 2568.00
16:30:57:601 -> 2521.00
16:30:57:602 -> 2508.00
16:30:57:603 -> 2570.00
16:30:57:604 -> 2590.00
16:30:57:605 -> 2631.00
16:30:57:607 -> 2668.00
16:30:57:608 -> 2672.00
16:30:57:609 -> 2540.00
16:30:57:610 -> 2440.00
16:30:57:611 -> 2529.00
16:30:57:613 -> 2593.00
16:30:57:614 -> 2627.00
16:30:57:615 -> 2495.00
16:30:57:616 -> 2500.00
16:30:57:618 -> 2578.00
16:30:57:619 -> 2629.00
16:30:57:622 -> 2578.00
16:30:57:622 -> 2560.00
16:30:57:623 -> 2599.00
16:30:57:623 -> 2540.00
16:30:57:624 -> 2551.00
16:30:57:626 -> 2521.00
16:30:57:627 -> 2576.00
16:30:57:628 -> 2483.00
16:30:57:629 -> 2497.00
16:30:57:649 -> 2596.00
16:30:57:649 -> 2573.00
16:30:57:649 -> 2465.00
16:30:57:649 -> 2481.00
16:30:57:649 -> 2535.00
16:30:57:649 -> 2515.00
16:30:57:649 -> 2537.00
16:30:57:649 -> 2605.00
16:30:57:649 -> 2591.00
16:30:57:649 -> 2517.00
16:30:57:649 -> 2493.00
16:30:57:649 -> 2478.00
16:30:57:649 -> 2450.00
16:30:57:649 -> 2478.00
16:30:57:649 -> 2438.00
16:30:57:652 -> 2440.00
16:30:57:652 -> 2613.00
16:30:57:652 -> 2626.00
16:30:57:652 -> 2547.00
16:30:57:653 -> 2578.00
16:30:57:654 -> 2684.00
16:30:57:655 -> 2674.00
16:30:57:657 -> 2668.00
16:30:57:658 -> 2629.00
16:30:57:659 -> 2644.00
16:30:57:660 -> 2649.00
16:30:57:667 -> 2578.00
16:30:57:667 -> 2604.00
16:30:57:667 -> 2628.00
16:30:57:667 -> 2689.00
16:30:57:667 -> 2600.00
16:30:57:681 -> 2552.00
16:30:57:681 -> 2689.00
16:30:57:681 -> 2543.00
16:30:57:681 -> 2543.00
16:30:57:681 -> 2536.00
16:30:57:681 -> 2613.00
16:30:57:681 -> 2538.00
16:30:57:681 -> 2535.00
16:30:57:681 -> 2492.00
16:30:57:681 -> 2511.00
16:30:57:681 -> 2537.00
16:30:57:681 -> 2553.00
16:30:57:684 -> 2569.00
16:30:57:684 -> 2577.00
16:30:57:684 -> 2663.00
16:30:57:685 -> 2644.00
16:30:57:686 -> 2615.00
16:30:57:742 -> 2743.00
16:30:57:742 -> 2461.00
16:30:57:742 -> 2552.00
16:30:57:742 -> 2629.00
16:30:57:742 -> 2511.00
16:30:57:742 -> 2580.00
16:30:57:742 -> 2577.00
16:30:57:742 -> 2617.00
16:30:57:742 -> 2595.00
16:30:57:742 -> 2598.00
16:30:57:742 -> 2603.00
16:30:57:742 -> 2589.00
16:30:57:742 -> 2618.00
16:30:57:742 -> 2644.00
16:30:57:742 -> 2547.00
16:30:57:742 -> 2574.00
16:30:57:742 -> 2527.00
16:30:57:742 -> 2603.00
16:30:57:742 -> 2624.00
16:30:57:742 -> 2658.00
16:30:57:742 -> 2584.00
16:30:57:742 -> 2556.00
16:30:57:742 -> 2535.00
16:30:57:742 -> 2488.00
16:30:57:742 -> 2614.00
16:30:57:742 -> 2595.00
16:30:57:742 -> 2470.00
16:30:57:742 -> 2361.00
16:30:57:742 -> 2499.00
16:30:57:742 -> 2530.00
16:30:57:757 -> 2598.00
16:30:57:757 -> 2536.00
16:30:57:757 -> 2621.00
16:30:57:757 -> 2513.00
16:30:57:757 -> 2458.00
16:30:57:757 -> 2568.00
16:30:57:757 -> 2688.00
16:30:57:757 -> 2660.00
16:30:57:757 -> 2591.00
16:30:57:757 -> 2615.00
16:30:57:757 -> 2618.00
16:30:57:757 -> 2627.00
16:30:57:757 -> 2624.00
16:30:57:757 -> 2661.00
16:30:57:757 -> 2691.00
16:30:57:757 -> 2442.00
16:30:57:757 -> 2499.00
16:30:57:757 -> 2592.00
16:30:57:757 -> 2670.00
16:30:57:757 -> 2591.00
16:30:57:757 -> 2466.00
16:30:57:757 -> 2403.00
16:30:57:757 -> 2573.00
16:30:57:757 -> 2636.00
16:30:57:757 -> 2660.00
16:30:57:757 -> 2572.00
16:30:57:757 -> 2493.00
16:30:57:759 -> 2556.00
16:30:57:759 -> 2513.00
16:30:57:759 -> 2573.00
16:30:57:759 -> 2670.00
16:30:57:764 -> 2624.00
16:30:57:764 -> 2551.00
16:30:57:764 -> 2575.00
16:30:57:776 -> 2623.00
16:30:57:776 -> 2601.00
16:30:57:776 -> 2565.00
16:30:57:779 -> 2539.00
16:30:57:779 -> 2582.00
16:30:57:779 -> 2609.00
16:30:57:779 -> 2596.00
16:30:57:779 -> 2581.00
16:30:57:779 -> 2571.00
16:30:57:779 -> 2553.00
16:30:57:779 -> 2532.00
16:30:57:779 -> 2544.00
16:30:57:779 -> 2586.00
16:30:57:780 -> 2528.00
16:30:57:781 -> 2531.00
16:30:57:786 -> 2660.00
16:30:57:786 -> 2611.00
16:30:57:786 -> 2502.00
16:30:57:786 -> 2504.00
16:30:57:787 -> 2625.00
16:30:57:790 -> 2682.00
16:30:57:790 -> 2603.00
16:30:57:793 -> 2591.00
16:30:57:793 -> 2580.00
16:30:57:793 -> 2609.00
16:30:57:795 -> 2594.00
16:30:57:795 -> 2573.00
16:30:57:797 -> 2843.00
16:30:57:806 -> 2515.00
16:30:57:806 -> 2664.00
16:30:57:806 -> 2587.00
16:30:57:806 -> 2457.00
16:30:57:806 -> 2638.00
16:30:57:806 -> 2604.00
16:30:57:806 -> 2594.00
16:30:57:806 -> 2541.00
16:30:57:811 -> 2578.00
16:30:57:811 -> 2599.00
16:30:57:811 -> 2542.00
16:30:57:811 -> 2563.00
16:30:57:814 -> 2572.00
16:30:57:814 -> 2489.00
16:30:57:814 -> 2452.00
16:30:57:818 -> 2440.00
16:30:57:818 -> 2577.00
16:30:57:818 -> 2503.00
16:30:57:824 -> 2476.00
16:30:57:824 -> 2586.00
16:30:57:824 -> 2657.00
16:30:57:824 -> 2634.00
16:30:57:824 -> 2651.00
16:30:57:825 -> 2663.00
16:30:57:827 -> 2656.00
16:30:57:828 -> 2549.00
16:30:57:828 -> 2620.00
16:30:57:829 -> 2620.00
16:30:57:830 -> 2535.00
16:30:57:832 -> 2499.00
16:30:57:834 -> 2553.00
16:30:57:836 -> 2579.00
16:30:57:836 -> 2579.00
16:30:57:837 -> 2488.00
16:30:57:840 -> 2531.00
16:30:57:840 -> 2556.00
16:30:57:841 -> 2747.00
16:30:57:841 -> 2818.00
16:30:57:842 -> 2617.00
16:30:57:845 -> 2516.00
16:30:57:857 -> 2574.00
16:30:57:857 -> 2563.00
16:30:57:857 -> 2581.00
16:30:57:857 -> 2614.00
16:30:57:857 -> 2622.00
16:30:57:871 -> 2628.00
16:30:57:871 -> 2619.00
16:30:57:871 -> 2659.00
16:30:57:871 -> 2597.00
16:30:57:871 -> 2493.00
16:30:57:871 -> 2428.00
16:30:57:871 -> 2549.00
16:30:57:871 -> 2664.00
16:30:57:871 -> 2515.00
16:30:57:871 -> 2525.00
16:30:57:871 -> 2628.00
16:30:57:871 -> 2603.00
16:30:57:871 -> 2550.00
16:30:57:871 -> 2567.00
16:30:57:871 -> 2545.00
16:30:57:871 -> 2586.00
16:30:57:871 -> 2609.00
16:30:57:871 -> 2646.00
16:30:57:885 -> 2606.00
16:30:57:885 -> 2633.00
16:30:57:885 -> 2649.00
16:30:57:885 -> 2499.00
16:30:57:885 -> 2507.00
16:30:57:885 -> 2535.00
16:30:57:885 -> 2699.00
16:30:57:885 -> 2741.00
16:30:57:885 -> 2488.00
16:30:57:885 -> 2541.00
16:30:57:885 -> 2665.00
16:30:57:909 -> 2580.00
16:30:57:909 -> 2510.00
16:30:57:909 -> 2518.00
16:30:57:909 -> 2593.00
16:30:57:909 -> 2584.00
16:30:57:909 -> 2536.00
16:30:57:909 -> 2565.00
16:30:57:909 -> 2706.00
16:30:57:909 -> 2681.00
16:30:57:909 -> 2410.00
16:30:57:909 -> 2520.00
16:30:57:909 -> 2674.00
16:30:57:909 -> 2661.00
16:30:57:909 -> 2553.00
16:30:57:909 -> 2543.00
16:30:57:909 -> 2621.00
16:30:57:909 -> 2589.00
16:30:57:909 -> 2531.00
16:30:57:909 -> 2483.00
16:30:57:909 -> 2556.00
16:30:57:928 -> 2543.00
16:30:57:928 -> 2564.00
16:30:57:928 -> 2641.00
16:30:57:928 -> 2794.00
16:30:57:928 -> 2628.00
16:30:57:928 -> 2626.00
16:30:57:928 -> 2552.00
16:30:57:928 -> 2683.00
16:30:57:928 -> 2784.00
16:30:57:928 -> 2601.00
16:30:57:928 -> 2508.00
16:30:57:928 -> 2599.00
16:30:57:928 -> 2572.00
16:30:57:928 -> 2548.00
16:30:57:928 -> 2505.00
16:30:57:928 -> 2597.00
16:30:57:969 -> 2662.00
16:30:57:969 -> 2633.00
16:30:57:969 -> 2711.00
16:30:57:969 -> 2629.00
16:30:57:969 -> 2571.00
16:30:57:969 -> 2577.00
16:30:57:969 -> 2571.00
16:30:57:969 -> 2465.00
16:30:57:969 -> 2559.00
16:30:57:969 -> 2501.00
16:30:57:969 -> 2442.00
16:30:57:969 -> 2682.00
16:30:57:969 -> 2863.00
16:30:57:969 -> 2682.00
16:30:57:969 -> 2665.00
16:30:57:969 -> 2564.00
16:30:57:969 -> 2583.00
16:30:57:969 -> 2448.00
16:30:57:969 -> 2664.00
16:30:57:969 -> 2594.00
16:30:57:969 -> 2561.00
16:30:57:969 -> 2620.00
16:30:57:969 -> 2582.00
16:30:57:969 -> 2513.00
16:30:57:969 -> 2573.00
16:30:57:969 -> 2518.00
16:30:57:969 -> 2740.00
16:30:57:969 -> 2640.00
16:30:57:969 -> 2523.00
16:30:57:969 -> 2596.00
16:30:57:969 -> 2747.00
16:30:57:969 -> 2622.00
16:30:57:969 -> 2440.00
16:30:57:969 -> 2586.00
16:30:57:969 -> 2589.00
16:30:57:993 -> 2546.00
16:30:57:993 -> 2618.00
16:30:57:993 -> 2605.00
16:30:57:993 -> 2636.00
16:30:57:993 -> 2494.00
16:30:57:993 -> 2808.00
16:30:57:993 -> 2668.00
16:30:57:993 -> 2594.00
16:30:57:993 -> 2606.00
16:30:58:008 -> 2572.00
16:30:58:008 -> 2573.00
16:30:58:008 -> 2575.00
16:30:58:008 -> 2575.00
16:30:58:008 -> 2579.00
16:30:58:008 -> 2636.00
16:30:58:008 -> 2743.00
16:30:58:008 -> 2625.00
16:30:58:008 -> 2542.00
16:30:58:008 -> 2523.00
16:30:58:008 -> 2581.00
16:30:58:008 -> 2546.00
16:30:58:008 -> 2469.00
16:30:58:008 -> 2530.00
16:30:58:008 -> 2559.00
16:30:58:008 -> 2544.00
16:30:58:008 -> 2598.00
16:30:58:008 -> 2746.00
16:30:58:008 -> 2492.00
16:30:58:008 -> 2564.00
16:30:58:008 -> 2774.00
16:30:58:008 -> 2607.00
16:30:58:008 -> 2564.00
16:30:58:008 -> 2640.00
16:30:58:016 -> 2627.00
16:30:58:016 -> 2747.00
16:30:58:016 -> 2621.00
16:30:58:016 -> 2443.00
16:30:58:016 -> 2518.00
16:30:58:016 -> 2658.00
16:30:58:027 -> 2772.00
16:30:58:027 -> 2647.00
16:30:58:027 -> 2546.00
16:30:58:027 -> 2554.00
16:30:58:027 -> 2544.00
16:30:58:027 -> 2623.00
16:30:58:027 -> 2648.00
16:30:58:027 -> 2552.00
16:30:58:027 -> 2664.00
16:30:58:030 -> 2660.00
16:30:58:030 -> 2590.00
16:30:58:030 -> 2538.00
16:30:58:030 -> 2602.00
16:30:58:033 -> 2614.00
16:30:58:033 -> 2579.00
16:30:58:036 -> 2539.00
16:30:58:036 -> 2558.00
16:30:58:043 -> 2792.00
16:30:58:043 -> 2528.00
16:30:58:043 -> 2527.00
16:30:58:043 -> 2611.00
16:30:58:043 -> 2525.00
16:30:58:043 -> 2600.00
16:30:58:051 -> 2621.00
16:30:58:051 -> 2620.00
16:30:58:051 -> 2604.00
16:30:58:051 -> 2605.00
16:30:58:051 -> 2625.00
16:30:58:051 -> 2627.00
16:30:58:051 -> 2536.00
16:30:58:069 -> 2517.00
16:30:58:069 -> 2577.00
16:30:58:069 -> 2622.00
16:30:58:069 -> 2575.00
16:30:58:069 -> 2532.00
16:30:58:069 -> 2550.00
16:30:58:069 -> 2637.00
16:30:58:069 -> 2543.00
16:30:58:069 -> 2595.00
16:30:58:069 -> 2630.00
16:30:58:069 -> 2485.00
16:30:58:069 -> 2545.00
16:30:58:069 -> 2489.00
16:30:58:069 -> 2580.00
16:30:58:069 -> 2588.00
16:30:58:077 -> 2490.00
16:30:58:077 -> 2600.00
16:30:58:077 -> 2625.00
16:30:58:077 -> 2581.00
16:30:58:077 -> 2569.00
16:30:58:077 -> 2638.00
16:30:58:077 -> 2696.00
16:30:58:084 -> 2726.00
16:30:58:084 -> 2736.00
16:30:58:084 -> 2595.00
16:30:58:084 -> 2619.00
16:30:58:084 -> 2639.00
16:30:58:084 -> 2637.00
16:30:58:106 -> 2581.00
16:30:58:106 -> 2516.00
16:30:58:106 -> 2614.00
16:30:58:106 -> 2620.00
16:30:58:106 -> 2654.00
16:30:58:106 -> 2615.00
16:30:58:106 -> 2639.00
16:30:58:106 -> 2722.00
16:30:58:106 -> 2653.00
16:30:58:106 -> 2573.00
16:30:58:106 -> 2595.00
16:30:58:106 -> 2535.00
16:30:58:106 -> 2549.00
16:30:58:106 -> 2633.00
16:30:58:106 -> 2635.00
16:30:58:106 -> 2610.00
16:30:58:106 -> 2627.00
16:30:58:106 -> 2601.00
16:30:58:111 -> 2593.00
16:30:58:111 -> 2584.00
16:30:58:111 -> 2678.00
16:30:58:111 -> 2638.00
16:30:58:111 -> 2593.00
16:30:58:116 -> 2622.00
16:30:58:116 -> 2554.00
16:30:58:116 -> 2621.00
16:30:58:116 -> 2589.00
16:30:58:122 -> 2625.00
16:30:58:122 -> 2659.00
16:30:58:122 -> 2521.00
16:30:58:122 -> 2649.00
16:30:58:133 -> 2803.00
16:30:58:133 -> 2482.00
16:30:58:133 -> 2615.00
16:30:58:133 -> 2606.00
16:30:58:133 -> 2624.00
16:30:58:133 -> 2587.00
16:30:58:133 -> 2533.00
16:30:58:133 -> 2484.00
16:30:58:133 -> 2587.00
16:30:58:133 -> 2624.00
16:30:58:140 -> 2670.00
16:30:58:140 -> 2647.00
16:30:58:140 -> 2552.00
16:30:58:140 -> 2561.00
16:30:58:140 -> 2624.00
16:30:58:140 -> 2567.00
16:30:58:191 -> 2588.00
16:30:58:191 -> 2511.00
16:30:58:191 -> 2585.00
16:30:58:191 -> 2699.00
16:30:58:191 -> 2487.00
16:30:58:191 -> 2600.00
16:30:58:191 -> 2666.00
16:30:58:191 -> 2646.00
16:30:58:191 -> 2475.00
16:30:58:191 -> 2467.00
16:30:58:191 -> 2562.00
16:30:58:191 -> 2647.00
16:30:58:191 -> 2805.00
16:30:58:191 -> 2578.00
16:30:58:191 -> 2628.00
16:30:58:191 -> 2599.00
16:30:58:191 -> 2579.00
16:30:58:191 -> 2551.00
16:30:58:191 -> 2565.00
16:30:58:191 -> 2530.00
16:30:58:191 -> 2665.00
16:30:58:191 -> 2646.00
16:30:58:191 -> 2707.00
16:30:58:191 -> 2707.00
16:30:58:191 -> 2691.00
16:30:58:191 -> 2596.00
16:30:58:191 -> 2606.00
16:30:58:191 -> 2657.00
16:30:58:191 -> 2633.00
16:30:58:191 -> 2615.00
16:30:58:191 -> 2622.00
16:30:58:191 -> 2632.00
16:30:58:191 -> 2596.00
16:30:58:191 -> 2575.00
16:30:58:191 -> 2531.00
16:30:58:191 -> 2569.00
16:30:58:227 -> 2569.00
16:30:58:227 -> 2775.00
16:30:58:227 -> 2913.00
16:30:58:227 -> 2578.00
16:30:58:227 -> 2628.00
16:30:58:227 -> 2712.00
16:30:58:227 -> 2584.00
16:30:58:227 -> 2467.00
16:30:58:227 -> 2658.00
16:30:58:227 -> 2637.00
16:30:58:227 -> 2657.00
16:30:58:227 -> 2681.00
16:30:58:227 -> 2544.00
16:30:58:227 -> 2528.00
16:30:58:227 -> 2581.00
16:30:58:227 -> 2584.00
16:30:58:227 -> 2659.00
16:30:58:227 -> 2780.00
16:30:58:227 -> 2655.00
16:30:58:227 -> 2688.00
16:30:58:227 -> 2529.00
16:30:58:227 -> 2546.00
16:30:58:227 -> 2579.00
16:30:58:227 -> 2571.00
16:30:58:227 -> 2516.00
16:30:58:227 -> 2528.00
16:30:58:227 -> 2572.00
16:30:58:227 -> 2539.00
16:30:58:227 -> 2508.00
16:30:58:227 -> 2695.00
16:30:58:227 -> 2664.00
16:30:58:227 -> 2573.00
16:30:58:227 -> 2614.00
16:30:58:227 -> 2548.00
16:30:58:227 -> 2572.00
16:30:58:227 -> 2586.00
16:30:58:227 -> 2601.00
16:30:58:236 -> 2597.00
16:30:58:236 -> 2649.00
16:30:58:236 -> 2607.00
16:30:58:236 -> 2625.00
16:30:58:236 -> 2558.00
16:30:58:236 -> 2558.00
16:30:58:236 -> 2538.00
16:30:58:279 -> 2501.00
16:30:58:279 -> 2530.00
16:30:58:279 -> 2611.00
16:30:58:279 -> 2722.00
16:30:58:279 -> 2732.00
16:30:58:279 -> 2658.00
16:30:58:279 -> 2596.00
16:30:58:279 -> 2522.00
16:30:58:279 -> 2651.00
16:30:58:279 -> 2629.00
16:30:58:279 -> 2600.00
16:30:58:279 -> 2645.00
16:30:58:279 -> 2681.00
16:30:58:279 -> 2617.00
16:30:58:279 -> 2609.00
16:30:58:279 -> 2657.00
16:30:58:279 -> 2674.00
16:30:58:279 -> 2697.00
16:30:58:279 -> 2603.00
16:30:58:279 -> 2600.00
16:30:58:279 -> 2535.00
16:30:58:279 -> 2579.00
16:30:58:296 -> 2606.00
16:30:58:296 -> 2654.00
16:30:58:296 -> 2610.00
16:30:58:296 -> 2651.00
16:30:58:296 -> 2655.00
16:30:58:296 -> 2656.00
16:30:58:296 -> 2636.00
16:30:58:296 -> 2591.00
16:30:58:296 -> 2568.00
16:30:58:296 -> 2570.00
16:30:58:296 -> 2554.00
16:30:58:296 -> 2621.00
16:30:58:296 -> 2649.00
16:30:58:296 -> 2649.00
16:30:58:296 -> 2558.00
16:30:58:296 -> 2622.00
16:30:58:296 -> 2626.00
16:30:58:296 -> 2671.00
16:30:58:296 -> 2629.00
16:30:58:296 -> 2585.00
16:30:58:296 -> 2850.00
16:30:58:296 -> 2617.00
16:30:58:296 -> 2569.00
16:30:58:296 -> 2649.00
16:30:58:296 -> 2722.00
16:30:58:296 -> 2637.00
16:30:58:296 -> 2535.00
16:30:58:296 -> 2449.00
16:30:58:296 -> 2561.00
16:30:58:301 -> 2585.00
16:30:58:301 -> 2597.00
16:30:58:301 -> 2667.00
16:30:58:301 -> 2657.00
16:30:58:302 -> 2539.00
16:30:58:316 -> 2533.00
16:30:58:316 -> 2600.00
16:30:58:316 -> 2586.00
16:30:58:316 -> 2616.00
16:30:58:316 -> 2614.00
16:30:58:316 -> 2669.00
16:30:58:316 -> 2620.00
16:30:58:316 -> 2585.00
16:30:58:316 -> 2625.00
16:30:58:316 -> 2637.00
16:30:58:316 -> 2593.00
16:30:58:323 -> 2598.00
16:30:58:323 -> 2548.00
16:30:58:323 -> 2692.00
16:30:58:323 -> 2687.00
16:30:58:323 -> 2540.00
16:30:58:323 -> 2593.00
16:30:58:328 -> 2600.00
16:30:58:328 -> 2584.00
16:30:58:328 -> 2661.00
16:30:58:328 -> 2665.00
16:30:58:328 -> 2532.00
16:30:58:330 -> 2573.00
16:30:58:363 -> 2740.00
16:30:58:363 -> 2623.00
16:30:58:363 -> 2560.00
16:30:58:363 -> 2556.00
16:30:58:363 -> 2571.00
16:30:58:363 -> 2547.00
16:30:58:363 -> 2529.00
16:30:58:363 -> 2617.00
16:30:58:363 -> 2667.00
16:30:58:363 -> 2729.00
16:30:58:363 -> 2707.00
16:30:58:363 -> 2667.00
16:30:58:363 -> 2684.00
16:30:58:363 -> 2656.00
16:30:58:363 -> 2692.00
16:30:58:363 -> 2655.00
16:30:58:363 -> 2650.00
16:30:58:363 -> 2576.00
16:30:58:363 -> 2617.00
16:30:58:363 -> 2653.00
16:30:58:363 -> 2662.00
16:30:58:363 -> 2608.00
16:30:58:363 -> 2625.00
16:30:58:363 -> 2623.00
16:30:58:363 -> 2612.00
16:30:58:363 -> 2618.00
16:30:58:363 -> 2655.00
16:30:58:363 -> 2611.00
16:30:58:373 -> 2619.00
16:30:58:373 -> 2650.00
16:30:58:373 -> 2586.00
16:30:58:373 -> 2545.00
16:30:58:373 -> 2746.00
16:30:58:373 -> 2712.00
16:30:58:373 -> 2546.00
16:30:58:373 -> 2729.00
16:30:58:373 -> 2539.00
16:30:58:396 -> 2431.00
16:30:58:396 -> 2501.00
16:30:58:396 -> 2780.00
16:30:58:396 -> 2709.00
16:30:58:396 -> 2453.00
16:30:58:396 -> 2546.00
16:30:58:396 -> 2539.00
16:30:58:396 -> 2525.00
16:30:58:396 -> 2854.00
16:30:58:396 -> 2829.00
16:30:58:396 -> 2661.00
16:30:58:396 -> 2658.00
16:30:58:396 -> 2716.00
16:30:58:396 -> 2604.00
16:30:58:396 -> 2712.00
16:30:58:396 -> 2467.00
16:30:58:396 -> 2509.00
16:30:58:396 -> 2594.00
16:30:58:396 -> 2650.00
16:30:58:405 -> 2636.00
16:30:58:405 -> 2615.00
16:30:58:405 -> 2644.00
16:30:58:405 -> 2696.00
16:30:58:405 -> 2690.00
16:30:58:405 -> 2523.00
16:30:58:405 -> 2589.00
16:30:58:405 -> 2533.00
16:30:58:419 -> 2734.00
16:30:58:419 -> 2813.00
16:30:58:419 -> 2746.00
16:30:58:419 -> 2528.00
16:30:58:419 -> 2612.00
16:30:58:419 -> 2496.00
16:30:58:419 -> 2630.00
16:30:58:419 -> 2666.00
16:30:58:419 -> 2694.00
16:30:58:419 -> 2614.00
16:30:58:419 -> 2564.00
16:30:58:443 -> 2663.00
16:30:58:443 -> 2657.00
16:30:58:443 -> 2665.00
16:30:58:443 -> 2607.00
16:30:58:443 -> 2643.00
16:30:58:443 -> 2775.00
16:30:58:443 -> 2541.00
16:30:58:443 -> 2645.00
16:30:58:443 -> 2800.00
16:30:58:443 -> 2670.00
16:30:58:443 -> 2557.00
16:30:58:443 -> 2584.00
16:30:58:443 -> 2594.00
16:30:58:443 -> 2555.00
16:30:58:443 -> 2615.00
16:30:58:443 -> 2599.00
16:30:58:443 -> 2490.00
16:30:58:443 -> 2443.00
16:30:58:443 -> 2690.00
16:30:58:443 -> 2556.00
16:30:58:443 -> 2539.00
16:30:58:455 -> 2945.00
16:30:58:455 -> 2834.00
16:30:58:455 -> 2592.00
16:30:58:455 -> 2652.00
16:30:58:455 -> 2528.00
16:30:58:455 -> 2441.00
16:30:58:455 -> 2613.00
16:30:58:455 -> 2459.00
16:30:58:455 -> 2556.00
16:30:58:480 -> 2630.00
16:30:58:480 -> 2656.00
16:30:58:480 -> 2640.00
16:30:58:480 -> 2666.00
16:30:58:480 -> 2695.00
16:30:58:480 -> 2673.00
16:30:58:480 -> 2596.00
16:30:58:480 -> 2579.00
16:30:58:480 -> 2839.00
16:30:58:480 -> 2614.00
16:30:58:480 -> 2643.00
16:30:58:480 -> 2609.00
16:30:58:480 -> 2647.00
16:30:58:480 -> 2648.00
16:30:58:480 -> 2595.00
16:30:58:480 -> 2568.00
16:30:58:480 -> 2474.00
16:30:58:480 -> 2570.00
16:30:58:480 -> 3125.00
16:30:58:480 -> 2881.00
16:30:58:480 -> 2561.00
16:30:58:485 -> 2515.00
16:30:58:485 -> 2606.00
16:30:58:485 -> 2563.00
16:30:58:485 -> 2558.00
16:30:58:488 -> 2586.00
16:30:58:488 -> 2511.00
16:30:58:488 -> 2723.00
16:30:58:493 -> 2655.00
16:30:58:493 -> 2507.00
16:30:58:493 -> 2617.00
16:30:58:493 -> 2812.00
16:30:58:493 -> 2520.00
16:30:58:496 -> 2456.00
16:30:58:496 -> 2491.00
16:30:58:507 -> 2640.00
16:30:58:507 -> 2807.00
16:30:58:507 -> 2832.00
16:30:58:507 -> 2625.00
16:30:58:507 -> 2408.00
16:30:58:507 -> 2556.00
16:30:58:511 -> 2624.00
16:30:58:511 -> 2727.00
16:30:58:511 -> 2687.00
16:30:58:511 -> 2529.00
16:30:58:511 -> 2786.00
16:30:58:511 -> 2820.00
16:30:58:511 -> 2567.00
16:30:58:513 -> 2657.00
16:30:58:514 -> 2582.00
16:30:58:517 -> 2569.00
16:30:58:517 -> 2647.00
16:30:58:517 -> 2476.00
16:30:58:518 -> 2556.00
16:30:58:520 -> 2558.00
16:30:58:521 -> 2605.00
16:30:58:522 -> 2614.00
16:30:58:523 -> 2641.00
16:30:58:524 -> 2644.00
16:30:58:525 -> 2668.00
16:30:58:527 -> 2596.00
16:30:58:528 -> 2586.00
16:30:58:531 -> 2625.00
16:30:58:531 -> 2653.00
16:30:58:532 -> 2619.00
16:30:58:534 -> 2568.00
16:30:58:534 -> 2569.00
16:30:58:535 -> 2565.00
16:30:58:536 -> 2675.00
16:30:58:537 -> 2744.00
16:30:58:539 -> 2575.00
16:30:58:540 -> 2532.00
16:30:58:541 -> 2588.00
16:30:58:542 -> 2605.00
16:30:58:543 -> 2627.00
16:30:58:546 -> 2663.00
16:30:58:546 -> 2656.00
16:30:58:547 -> 2654.00
16:30:58:563 -> 2663.00
16:30:58:563 -> 2711.00
16:30:58:563 -> 2571.00
16:30:58:563 -> 2570.00
16:30:58:563 -> 2664.00
16:30:58:563 -> 2656.00
16:30:58:563 -> 2455.00
16:30:58:563 -> 2565.00
16:30:58:563 -> 2657.00
16:30:58:563 -> 2570.00
16:30:58:563 -> 2600.00
16:30:58:563 -> 2735.00
16:30:58:563 -> 2754.00
16:30:58:575 -> 2566.00
16:30:58:575 -> 2573.00
16:30:58:575 -> 2658.00
16:30:58:575 -> 2582.00
16:30:58:575 -> 2673.00
16:30:58:575 -> 2709.00
16:30:58:575 -> 2756.00
16:30:58:575 -> 2666.00
16:30:58:575 -> 2602.00
16:30:58:575 -> 2598.00
16:30:58:588 -> 2579.00
16:30:58:588 -> 2649.00
16:30:58:588 -> 2630.00
16:30:58:588 -> 2565.00
16:30:58:588 -> 2744.00
16:30:58:588 -> 2737.00
16:30:58:588 -> 2639.00
16:30:58:588 -> 2655.00
16:30:58:588 -> 2616.00
16:30:58:588 -> 2816.00
16:30:58:588 -> 2669.00
16:30:58:590 -> 2472.00
16:30:58:590 -> 2581.00
16:30:58:641 -> 2674.00
16:30:58:641 -> 2586.00
16:30:58:641 -> 2553.00
16:30:58:641 -> 2523.00
16:30:58:641 -> 2592.00
16:30:58:641 -> 2718.00
16:30:58:641 -> 2588.00
16:30:58:641 -> 2606.00
16:30:58:641 -> 2623.00
16:30:58:641 -> 2621.00
16:30:58:641 -> 2659.00
16:30:58:641 -> 2599.00
16:30:58:641 -> 2647.00
16:30:58:653 -> 2837.00
16:30:58:653 -> 2597.00
16:30:58:653 -> 2517.00
16:30:58:653 -> 2583.00
16:30:58:653 -> 2696.00
16:30:58:653 -> 2637.00
16:30:58:653 -> 2555.00
16:30:58:653 -> 2581.00
16:30:58:653 -> 2597.00
16:30:58:653 -> 2611.00
16:30:58:653 -> 2633.00
16:30:58:653 -> 2785.00
16:30:58:653 -> 2653.00
16:30:58:653 -> 2532.00
16:30:58:653 -> 2633.00
16:30:58:653 -> 2593.00
16:30:58:653 -> 2589.00
16:30:58:653 -> 2672.00
16:30:58:653 -> 2675.00
16:30:58:653 -> 2629.00
16:30:58:653 -> 2655.00
16:30:58:653 -> 2700.00
16:30:58:653 -> 2645.00
16:30:58:653 -> 2541.00
16:30:58:653 -> 2564.00
16:30:58:653 -> 2635.00
16:30:58:653 -> 2619.00
16:30:58:653 -> 2618.00
16:30:58:653 -> 2685.00
16:30:58:653 -> 2710.00
16:30:58:653 -> 2565.00
16:30:58:653 -> 2602.00
16:30:58:653 -> 2647.00
16:30:58:653 -> 2660.00
16:30:58:653 -> 2669.00
16:30:58:653 -> 2708.00
16:30:58:653 -> 2711.00
16:30:58:657 -> 2621.00
16:30:58:657 -> 2568.00
16:30:58:657 -> 2544.00
16:30:58:657 -> 2639.00
16:30:58:657 -> 2555.00
16:30:58:657 -> 2546.00
16:30:58:660 -> 2549.00
16:30:58:660 -> 2596.00
16:30:58:661 -> 2634.00
16:30:58:661 -> 2600.00
16:30:58:663 -> 2621.00
16:30:58:663 -> 2658.00
16:30:58:665 -> 2593.00
16:30:58:666 -> 2608.00
16:30:58:667 -> 2770.00
16:30:58:668 -> 2632.00
16:30:58:669 -> 2530.00
16:30:58:671 -> 2681.00
16:30:58:672 -> 2860.00
16:30:58:673 -> 2519.00
16:30:58:674 -> 2646.00
16:30:58:675 -> 2618.00
16:30:58:677 -> 2615.00
16:30:58:678 -> 2602.00
16:30:58:679 -> 2611.00
16:30:58:680 -> 2622.00
16:30:58:681 -> 2617.00
16:30:58:683 -> 2588.00
16:30:58:684 -> 2641.00
16:30:58:685 -> 2704.00
16:30:58:686 -> 2928.00
16:30:58:687 -> 2582.00
16:30:58:688 -> 2588.00
16:30:58:690 -> 2646.00
16:30:58:691 -> 2701.00
16:30:58:692 -> 2593.00
16:30:58:693 -> 2495.00
16:30:58:694 -> 2502.00
16:30:58:696 -> 2583.00
16:30:58:697 -> 2621.00
16:30:58:699 -> 2704.00
16:30:58:699 -> 2615.00
16:30:58:702 -> 2567.00
16:30:58:703 -> 2551.00
16:30:58:703 -> 2638.00
16:30:58:704 -> 2616.00
16:30:58:705 -> 2688.00
16:30:58:706 -> 2677.00
16:30:58:708 -> 2667.00
16:30:58:709 -> 2711.00
16:30:58:710 -> 2609.00
16:30:58:711 -> 2548.00
16:30:58:712 -> 2624.00
16:30:58:713 -> 2652.00
16:30:58:715 -> 2667.00
16:30:58:716 -> 2663.00
16:30:58:717 -> 2638.00
16:30:58:718 -> 2653.00
16:30:58:719 -> 2619.00
16:30:58:721 -> 2621.00
16:30:58:722 -> 2695.00
16:30:58:723 -> 2615.00
16:30:58:724 -> 2689.00
16:30:58:725 -> 2694.00
16:30:58:727 -> 2669.00
16:30:58:728 -> 2659.00
16:30:58:729 -> 2550.00
16:30:58:730 -> 2635.00
16:30:58:731 -> 2649.00
16:30:58:732 -> 2606.00
16:30:58:734 -> 2608.00
16:30:58:735 -> 2628.00
16:30:58:736 -> 2597.00
16:30:58:737 -> 2716.00
16:30:58:738 -> 2629.00
16:30:58:740 -> 2662.00
16:30:58:741 -> 2654.00
16:30:58:742 -> 2604.00
16:30:58:743 -> 2639.00
16:30:58:744 -> 2667.00
16:30:58:746 -> 2556.00
16:30:58:747 -> 2611.00
16:30:58:748 -> 2684.00
16:30:58:749 -> 2645.00
16:30:58:750 -> 2652.00
16:30:58:752 -> 2652.00
16:30:58:753 -> 2521.00
16:30:58:754 -> 2535.00
16:30:58:755 -> 2622.00
16:30:58:756 -> 2595.00
16:30:58:757 -> 2583.00
16:30:58:759 -> 2702.00
16:30:58:761 -> 2702.00
16:30:58:762 -> 2683.00
16:30:58:763 -> 2581.00
16:30:58:763 -> 2563.00
16:30:58:765 -> 2644.00
16:30:58:766 -> 2657.00
16:30:58:769 -> 2628.00
16:30:58:769 -> 2649.00
16:30:58:769 -> 2650.00
16:30:58:771 -> 2671.00
16:30:58:772 -> 2622.00
16:30:58:773 -> 2635.00
16:30:58:774 -> 2708.00
16:30:58:775 -> 2532.00
16:30:58:776 -> 2580.00
16:30:58:778 -> 2636.00
16:30:58:806 -> 2678.00
16:30:58:809 -> 2690.00
16:30:58:809 -> 2598.00
16:30:58:809 -> 2590.00
16:30:58:809 -> 2608.00
16:30:58:809 -> 2611.00
16:30:58:809 -> 2684.00
16:30:58:809 -> 2647.00
16:30:58:809 -> 2697.00
16:30:58:809 -> 2789.00
16:30:58:809 -> 2624.00
16:30:58:809 -> 2577.00
16:30:58:809 -> 2547.00
16:30:58:809 -> 2584.00
16:30:58:809 -> 2504.00
16:30:58:809 -> 2501.00
16:30:58:809 -> 2599.00
16:30:58:809 -> 2637.00
16:30:58:809 -> 2556.00
16:30:58:809 -> 2622.00
16:30:58:809 -> 2636.00
16:30:58:809 -> 2622.00
16:30:58:809 -> 2562.00
16:30:58:809 -> 2562.00
16:30:58:809 -> 2649.00
16:30:58:809 -> 2603.00
16:30:58:816 -> 2716.00
16:30:58:816 -> 2705.00
16:30:58:816 -> 2742.00
16:30:58:816 -> 2611.00
16:30:58:816 -> 2637.00
16:30:58:816 -> 2635.00
16:30:58:817 -> 2654.00
16:30:58:818 -> 2634.00
16:30:58:819 -> 2599.00
16:30:58:821 -> 2622.00
16:30:58:822 -> 2663.00
16:30:58:823 -> 2675.00
16:30:58:824 -> 2573.00
16:30:58:825 -> 2582.00
16:30:58:827 -> 2622.00
16:30:58:829 -> 2658.00
16:30:58:829 -> 2691.00
16:30:58:830 -> 2699.00
16:30:58:832 -> 2644.00
16:30:58:834 -> 2647.00
16:30:58:834 -> 2667.00
16:30:58:836 -> 2637.00
16:30:58:837 -> 2653.00
16:30:58:837 -> 2528.00
16:30:58:840 -> 2572.00
16:30:58:840 -> 2632.00
16:30:58:842 -> 2528.00
16:30:58:856 -> 2879.00
16:30:58:856 -> 2679.00
16:30:58:856 -> 2617.00
16:30:58:856 -> 2685.00
16:30:58:856 -> 2672.00
16:30:58:856 -> 2641.00
16:30:58:856 -> 2578.00
16:30:58:856 -> 2607.00
16:30:58:856 -> 2625.00
16:30:58:856 -> 2645.00
16:30:58:856 -> 2703.00
16:30:58:858 -> 2624.00
16:30:58:858 -> 2587.00
16:30:58:861 -> 2675.00
16:30:58:861 -> 2738.00
16:30:58:865 -> 2787.00
16:30:58:865 -> 2592.00
16:30:58:865 -> 2547.00
16:30:58:865 -> 2695.00
16:30:58:867 -> 2606.00
16:30:58:867 -> 2623.00
16:30:58:867 -> 2600.00
16:30:58:869 -> 2553.00
16:30:58:870 -> 2533.00
16:30:58:871 -> 2563.00
16:30:58:872 -> 2638.00
16:30:58:873 -> 2610.00
16:30:58:874 -> 2563.00
16:30:58:875 -> 2691.00
16:30:58:876 -> 2715.00
16:30:58:878 -> 2608.00
16:30:58:879 -> 2543.00
16:30:58:880 -> 2579.00
16:30:58:881 -> 2531.00
16:30:58:910 -> 2582.00
16:30:58:930 -> 2724.00
16:30:58:930 -> 2752.00
16:30:58:930 -> 2673.00
16:30:58:930 -> 2564.00
16:30:58:930 -> 2555.00
16:30:58:930 -> 2706.00
16:30:58:930 -> 2708.00
16:30:58:930 -> 2741.00
16:30:58:930 -> 2728.00
16:30:58:930 -> 2646.00
16:30:58:930 -> 2625.00
16:30:58:930 -> 2649.00
16:30:58:930 -> 2653.00
16:30:58:930 -> 2652.00
16:30:58:930 -> 2635.00
16:30:58:930 -> 2650.00
16:30:58:930 -> 2663.00
16:30:58:930 -> 2673.00
16:30:58:930 -> 2662.00
16:30:58:930 -> 2689.00
16:30:58:930 -> 2527.00
16:30:58:930 -> 2613.00
16:30:58:930 -> 2652.00
16:30:58:930 -> 2712.00
16:30:58:930 -> 2623.00
16:30:58:930 -> 2602.00
16:30:58:930 -> 2614.00
16:30:58:930 -> 2690.00
16:30:58:934 -> 2654.00
16:30:58:934 -> 2645.00
16:30:58:934 -> 2664.00
16:30:58:934 -> 2705.00
16:30:58:934 -> 2710.00
16:30:58:934 -> 2572.00
16:30:58:934 -> 2598.00
16:30:58:934 -> 2592.00
16:30:58:934 -> 2625.00
16:30:58:934 -> 2680.00
16:30:58:934 -> 2672.00
16:30:58:934 -> 2587.00
16:30:58:934 -> 2611.00
16:30:58:934 -> 2578.00
16:30:58:935 -> 2541.00
16:30:58:935 -> 2697.00
16:30:58:936 -> 2481.00
16:30:58:937 -> 2588.00
16:30:58:938 -> 2673.00
16:30:58:940 -> 2767.00
16:30:58:941 -> 2716.00
16:30:58:942 -> 2641.00
16:30:58:943 -> 2796.00
16:30:58:944 -> 2620.00
16:30:58:946 -> 2652.00
16:30:58:947 -> 2602.00
16:30:58:948 -> 2648.00
16:30:58:950 -> 2660.00
16:30:58:950 -> 2715.00
16:30:58:951 -> 2582.00
16:30:58:953 -> 2669.00
16:30:58:954 -> 2823.00
16:30:58:987 -> 2554.00
16:30:59:008 -> 2556.00
16:30:59:008 -> 2506.00
16:30:59:008 -> 2562.00
16:30:59:008 -> 2600.00
16:30:59:008 -> 2638.00
16:30:59:008 -> 2616.00
16:30:59:008 -> 2568.00
16:30:59:008 -> 2578.00
16:30:59:008 -> 2591.00
16:30:59:008 -> 2607.00
16:30:59:008 -> 2706.00
16:30:59:008 -> 2665.00
16:30:59:008 -> 2705.00
16:30:59:008 -> 2691.00
16:30:59:008 -> 2655.00
16:30:59:008 -> 2599.00
16:30:59:008 -> 2631.00
16:30:59:008 -> 2633.00
16:30:59:008 -> 2670.00
16:30:59:008 -> 2645.00
16:30:59:008 -> 2671.00
16:30:59:008 -> 2690.00
16:30:59:008 -> 2668.00
16:30:59:008 -> 2682.00
16:30:59:008 -> 2791.00
16:30:59:008 -> 2488.00
16:30:59:008 -> 2594.00
16:30:59:008 -> 2575.00
16:30:59:008 -> 2660.00
16:30:59:008 -> 2603.00
16:30:59:008 -> 2656.00
16:30:59:008 -> 2685.00
16:30:59:008 -> 2621.00
16:30:59:008 -> 2627.00
16:30:59:008 -> 2650.00
16:30:59:008 -> 2584.00
16:30:59:008 -> 2567.00
16:30:59:008 -> 2636.00
16:30:59:008 -> 2630.00
16:30:59:008 -> 2685.00
16:30:59:008 -> 2698.00
16:30:59:008 -> 2620.00
16:30:59:008 -> 2533.00
16:30:59:008 -> 2604.00
16:30:59:051 -> 2690.00
16:30:59:051 -> 2706.00
16:30:59:051 -> 2707.00
16:30:59:051 -> 2716.00
16:30:59:051 -> 2639.00
16:30:59:051 -> 2625.00
16:30:59:051 -> 2511.00
16:30:59:051 -> 2631.00
16:30:59:051 -> 2694.00
16:30:59:051 -> 2647.00
16:30:59:051 -> 2707.00
16:30:59:051 -> 2689.00
16:30:59:051 -> 2624.00
16:30:59:051 -> 2613.00
16:30:59:051 -> 2634.00
16:30:59:051 -> 2681.00
16:30:59:051 -> 2677.00
16:30:59:051 -> 2644.00
16:30:59:051 -> 2650.00
16:30:59:051 -> 2629.00
16:30:59:051 -> 2679.00
16:30:59:051 -> 2683.00
16:30:59:051 -> 2492.00
16:30:59:051 -> 2579.00
16:30:59:051 -> 2612.00
16:30:59:051 -> 2615.00
16:30:59:051 -> 2485.00
16:30:59:051 -> 2635.00
16:30:59:051 -> 2823.00
16:30:59:051 -> 2628.00
16:30:59:051 -> 2607.00
16:30:59:051 -> 2599.00
16:30:59:051 -> 2653.00
16:30:59:069 -> 2631.00
16:30:59:069 -> 2572.00
16:30:59:069 -> 2528.00
16:30:59:069 -> 2658.00
16:30:59:069 -> 2673.00
16:30:59:069 -> 2685.00
16:30:59:069 -> 2643.00
16:30:59:069 -> 2733.00
16:30:59:069 -> 2638.00
16:30:59:069 -> 2646.00
16:30:59:069 -> 2550.00
16:30:59:069 -> 2498.00
16:30:59:069 -> 2706.00
16:30:59:069 -> 2561.00
16:30:59:069 -> 2610.00
16:30:59:069 -> 2656.00
16:30:59:069 -> 2653.00
16:30:59:069 -> 2711.00
16:30:59:069 -> 2693.00
16:30:59:097 -> 2644.00
16:30:59:097 -> 2678.00
16:30:59:097 -> 2734.00
16:30:59:097 -> 2672.00
16:30:59:097 -> 2695.00
16:30:59:097 -> 2657.00
16:30:59:097 -> 2602.00
16:30:59:097 -> 2645.00
16:30:59:097 -> 2704.00
16:30:59:097 -> 2615.00
16:30:59:097 -> 2615.00
16:30:59:097 -> 2668.00
16:30:59:097 -> 2672.00
16:30:59:097 -> 2670.00
16:30:59:097 -> 2674.00
16:30:59:097 -> 2645.00
16:30:59:097 -> 2664.00
16:30:59:097 -> 2651.00
16:30:59:097 -> 2625.00
16:30:59:097 -> 2612.00
16:30:59:097 -> 2566.00
16:30:59:097 -> 2546.00
16:30:59:097 -> 2773.00
16:30:59:115 -> 2609.00
16:30:59:115 -> 2516.00
16:30:59:115 -> 2699.00
16:30:59:115 -> 2733.00
16:30:59:115 -> 2514.00
16:30:59:115 -> 2641.00
16:30:59:115 -> 2617.00
16:30:59:115 -> 2619.00
16:30:59:115 -> 2645.00
16:30:59:115 -> 2604.00
16:30:59:115 -> 2558.00
16:30:59:115 -> 2556.00
16:30:59:115 -> 2675.00
16:30:59:115 -> 2659.00
16:30:59:115 -> 2561.00
16:30:59:125 -> 2569.00
16:30:59:125 -> 2539.00
16:30:59:125 -> 2438.00
16:30:59:125 -> 2593.00
16:30:59:125 -> 2475.00
16:30:59:125 -> 2711.00
16:30:59:125 -> 2605.00
16:30:59:125 -> 2645.00
16:30:59:141 -> 2657.00
16:30:59:141 -> 2640.00
16:30:59:141 -> 2547.00
16:30:59:141 -> 2623.00
16:30:59:141 -> 2614.00
16:30:59:141 -> 2566.00
16:30:59:141 -> 2762.00
16:30:59:141 -> 2860.00
16:30:59:141 -> 2731.00
16:30:59:141 -> 2537.00
16:30:59:141 -> 2616.00
16:30:59:141 -> 2626.00
16:30:59:141 -> 2773.00
16:30:59:141 -> 2783.00
16:30:59:144 -> 2548.00
16:30:59:144 -> 2555.00
16:30:59:144 -> 2641.00
16:30:59:146 -> 2609.00
16:30:59:147 -> 2588.00
16:30:59:152 -> 2651.00
16:30:59:152 -> 2671.00
16:30:59:152 -> 2625.00
16:30:59:152 -> 2856.00
16:30:59:153 -> 2597.00
16:30:59:155 -> 2676.00
16:30:59:164 -> 2846.00
16:30:59:164 -> 2497.00
16:30:59:164 -> 2496.00
16:30:59:164 -> 2737.00
16:30:59:164 -> 2505.00
16:30:59:164 -> 2668.00
16:30:59:164 -> 2628.00
16:30:59:164 -> 2538.00
16:30:59:172 -> 2784.00
16:30:59:172 -> 2646.00
16:30:59:172 -> 2612.00
16:30:59:172 -> 2738.00
16:30:59:172 -> 2771.00
16:30:59:172 -> 2652.00
16:30:59:173 -> 2600.00
16:30:59:173 -> 2637.00
16:30:59:174 -> 2586.00
16:30:59:175 -> 2614.00
16:30:59:176 -> 2599.00
16:30:59:178 -> 2616.00
16:30:59:179 -> 2725.00
16:30:59:180 -> 2701.00
16:30:59:181 -> 2638.00
16:30:59:182 -> 2682.00
16:30:59:184 -> 2625.00
16:30:59:185 -> 2674.00
16:30:59:186 -> 2757.00
16:30:59:190 -> 2647.00
16:30:59:190 -> 2629.00
16:30:59:190 -> 2637.00
16:30:59:191 -> 2649.00
16:30:59:192 -> 2568.00
16:30:59:193 -> 2661.00
16:30:59:194 -> 2721.00
16:30:59:195 -> 2590.00
16:30:59:197 -> 2543.00
16:30:59:198 -> 2641.00
16:30:59:199 -> 2643.00
16:30:59:200 -> 2594.00
16:30:59:201 -> 2638.00
16:30:59:203 -> 2712.00
16:30:59:204 -> 2691.00
16:30:59:205 -> 2644.00
16:30:59:206 -> 2659.00
16:30:59:207 -> 2642.00
16:30:59:209 -> 2593.00
16:30:59:213 -> 2622.00
16:30:59:213 -> 2682.00
16:30:59:213 -> 2611.00
16:30:59:215 -> 2719.00
16:30:59:215 -> 2464.00
16:30:59:218 -> 2442.00
16:30:59:218 -> 2716.00
16:30:59:227 -> 2635.00
16:30:59:227 -> 2670.00
16:30:59:227 -> 2721.00
16:30:59:227 -> 2602.00
16:30:59:227 -> 2686.00
16:30:59:227 -> 2571.00
16:30:59:227 -> 2509.00
16:30:59:227 -> 2577.00
16:30:59:232 -> 2618.00
16:30:59:232 -> 2660.00
16:30:59:232 -> 2763.00
16:30:59:232 -> 2595.00
16:30:59:232 -> 2637.00
16:30:59:235 -> 2653.00
16:30:59:235 -> 2592.00
16:30:59:241 -> 2644.00
16:30:59:241 -> 2622.00
16:30:59:241 -> 2626.00
16:30:59:241 -> 2587.00
16:30:59:246 -> 2602.00
16:30:59:246 -> 2602.00
16:30:59:246 -> 2652.00
16:30:59:246 -> 2677.00
16:30:59:246 -> 2767.00
16:30:59:251 -> 2724.00
16:30:59:251 -> 2658.00
16:30:59:251 -> 2600.00
16:30:59:251 -> 2671.00
16:30:59:252 -> 2632.00
16:30:59:256 -> 2589.00
16:30:59:256 -> 2572.00
16:30:59:256 -> 2679.00
16:30:59:264 -> 2566.00
16:30:59:264 -> 2620.00
16:30:59:264 -> 2555.00
16:30:59:264 -> 2518.00
16:30:59:264 -> 2878.00
16:30:59:264 -> 2729.00
16:30:59:264 -> 2611.00
16:30:59:269 -> 2600.00
16:30:59:269 -> 2706.00
16:30:59:269 -> 2761.00
16:30:59:269 -> 2770.00
16:30:59:269 -> 2585.00
16:30:59:272 -> 2593.00
16:30:59:272 -> 2613.00
16:30:59:286 -> 2448.00
16:30:59:286 -> 2417.00
16:30:59:286 -> 2729.00
16:30:59:286 -> 3100.00
16:30:59:286 -> 2488.00
16:30:59:286 -> 2546.00
16:30:59:291 -> 2620.00
16:30:59:291 -> 2646.00
16:30:59:291 -> 2608.00
16:30:59:291 -> 2641.00
16:30:59:291 -> 2654.00
16:30:59:291 -> 2625.00
16:30:59:291 -> 2694.00
16:30:59:291 -> 2660.00
16:30:59:291 -> 2611.00
16:30:59:297 -> 2547.00
16:30:59:297 -> 2582.00
16:30:59:297 -> 2590.00
16:30:59:297 -> 2562.00
16:30:59:297 -> 2568.00
16:30:59:297 -> 2634.00
16:30:59:300 -> 2668.00
16:30:59:300 -> 2640.00
16:30:59:300 -> 2593.00
16:30:59:337 -> 2672.00
16:30:59:337 -> 2738.00
16:30:59:337 -> 2622.00
16:30:59:337 -> 2511.00
16:30:59:337 -> 2583.00
16:30:59:343 -> 2667.00
16:30:59:343 -> 2670.00
16:30:59:343 -> 2668.00
16:30:59:343 -> 2672.00
16:30:59:343 -> 2632.00
16:30:59:343 -> 2678.00
16:30:59:343 -> 2742.00
16:30:59:343 -> 2572.00
16:30:59:343 -> 2607.00
16:30:59:343 -> 2609.00
16:30:59:343 -> 2625.00
16:30:59:343 -> 2643.00
16:30:59:343 -> 2754.00
16:30:59:343 -> 2581.00
16:30:59:343 -> 2595.00
16:30:59:343 -> 2601.00
16:30:59:343 -> 2644.00
16:30:59:343 -> 2642.00
16:30:59:343 -> 2594.00
16:30:59:343 -> 2607.00
16:30:59:343 -> 2616.00
16:30:59:343 -> 2654.00
16:30:59:343 -> 2649.00
16:30:59:343 -> 2612.00
16:30:59:343 -> 2604.00
16:30:59:343 -> 2611.00
16:30:59:343 -> 2684.00
16:30:59:343 -> 2667.00
16:30:59:343 -> 2654.00
16:30:59:343 -> 2574.00
16:30:59:348 -> 2601.00
16:30:59:348 -> 2614.00
16:30:59:348 -> 2629.00
16:30:59:348 -> 2578.00
16:30:59:371 -> 2620.00
16:30:59:371 -> 2692.00
16:30:59:371 -> 2746.00
16:30:59:371 -> 2667.00
16:30:59:371 -> 2653.00
16:30:59:371 -> 2614.00
16:30:59:371 -> 2650.00
16:30:59:371 -> 2578.00
16:30:59:371 -> 2593.00
16:30:59:371 -> 2553.00
16:30:59:371 -> 2646.00
16:30:59:371 -> 2719.00
16:30:59:371 -> 2690.00
16:30:59:371 -> 2641.00
16:30:59:371 -> 2603.00
16:30:59:371 -> 2597.00
16:30:59:371 -> 2657.00
16:30:59:371 -> 2756.00
16:30:59:371 -> 2722.00
16:30:59:371 -> 2645.00
16:30:59:373 -> 2613.00
16:30:59:373 -> 2534.00
16:30:59:375 -> 2705.00
16:30:59:375 -> 2483.00
16:30:59:377 -> 2523.00
16:30:59:378 -> 2506.00
16:30:59:379 -> 2577.00
16:30:59:380 -> 2603.00
16:30:59:381 -> 2582.00
16:30:59:382 -> 2694.00
16:30:59:384 -> 2635.00
16:30:59:386 -> 2641.00
16:30:59:386 -> 2758.00
16:30:59:387 -> 2772.00
16:30:59:388 -> 2626.00
16:30:59:389 -> 2600.00
16:30:59:391 -> 2613.00
16:30:59:392 -> 2591.00
16:30:59:393 -> 2549.00
16:30:59:394 -> 2553.00
16:30:59:395 -> 2631.00
16:30:59:397 -> 2593.00
16:30:59:398 -> 2655.00
16:30:59:399 -> 2793.00
16:30:59:402 -> 2711.00
16:30:59:402 -> 2617.00
16:30:59:403 -> 2524.00
16:30:59:404 -> 2664.00
16:30:59:405 -> 2652.00
16:30:59:406 -> 2655.00
16:30:59:407 -> 2625.00
16:30:59:409 -> 2639.00
16:30:59:410 -> 2604.00
16:30:59:411 -> 2614.00
16:30:59:412 -> 2591.00
16:30:59:413 -> 2630.00
16:30:59:415 -> 2611.00
16:30:59:419 -> 2677.00
16:30:59:419 -> 2656.00
16:30:59:419 -> 2621.00
16:30:59:419 -> 2651.00
16:30:59:421 -> 2624.00
16:30:59:426 -> 2595.00
16:30:59:426 -> 2640.00
16:30:59:426 -> 2642.00
16:30:59:428 -> 2721.00
16:30:59:428 -> 2660.00
16:30:59:428 -> 2678.00
16:30:59:437 -> 2599.00
16:30:59:437 -> 2579.00
16:30:59:437 -> 2855.00
16:30:59:437 -> 2700.00
16:30:59:437 -> 2525.00
16:30:59:437 -> 2567.00
16:30:59:437 -> 2624.00
16:30:59:437 -> 2616.00
16:30:59:440 -> 2605.00
16:30:59:440 -> 2667.00
16:30:59:441 -> 2676.00
16:30:59:442 -> 2673.00
16:30:59:443 -> 2659.00
16:30:59:444 -> 2623.00
16:30:59:445 -> 2648.00
16:30:59:447 -> 2703.00
16:30:59:448 -> 2608.00
16:30:59:449 -> 2683.00
16:30:59:450 -> 2683.00
16:30:59:451 -> 2663.00
16:30:59:453 -> 2618.00
16:30:59:454 -> 2602.00
16:30:59:455 -> 2617.00
16:30:59:456 -> 2653.00
16:30:59:457 -> 2638.00
16:30:59:458 -> 2567.00
16:30:59:460 -> 2634.00
16:30:59:461 -> 2684.00
16:30:59:462 -> 2622.00
16:30:59:463 -> 2628.00
16:30:59:465 -> 2645.00
16:30:59:466 -> 2652.00
16:30:59:467 -> 2695.00
16:30:59:468 -> 2623.00
16:30:59:469 -> 2625.00
16:30:59:470 -> 2661.00
16:30:59:472 -> 2612.00
16:30:59:473 -> 2551.00
16:30:59:474 -> 2535.00
16:30:59:475 -> 2600.00
16:30:59:477 -> 2569.00
16:30:59:478 -> 2613.00
16:30:59:479 -> 2631.00
16:30:59:480 -> 2734.00
16:30:59:481 -> 2642.00
16:30:59:483 -> 2551.00
16:30:59:483 -> 2542.00
16:30:59:485 -> 2676.00
16:30:59:486 -> 2685.00
16:30:59:487 -> 2731.00
16:30:59:489 -> 2672.00
16:30:59:489 -> 2608.00
16:30:59:491 -> 2725.00
16:30:59:492 -> 2801.00
16:30:59:493 -> 2633.00
16:30:59:500 -> 2650.00
16:30:59:500 -> 2595.00
16:30:59:500 -> 2626.00
16:30:59:500 -> 2690.00
16:30:59:500 -> 2705.00
16:30:59:503 -> 2775.00
16:30:59:503 -> 2578.00
16:30:59:503 -> 2586.00
16:30:59:504 -> 2621.00
16:30:59:505 -> 2620.00
16:30:59:507 -> 2631.00
16:30:59:508 -> 2633.00
16:30:59:508 -> 2660.00
16:30:59:510 -> 2661.00
16:30:59:511 -> 2656.00
16:30:59:513 -> 2626.00
16:30:59:513 -> 2586.00
16:30:59:515 -> 2610.00
16:30:59:516 -> 2600.00
16:30:59:517 -> 2609.00
16:30:59:518 -> 2633.00
16:30:59:519 -> 2635.00
16:30:59:520 -> 2627.00
16:30:59:522 -> 2589.00
16:30:59:523 -> 2680.00
16:30:59:524 -> 2769.00
16:30:59:525 -> 2646.00
16:30:59:526 -> 2637.00
16:30:59:528 -> 2660.00
16:30:59:529 -> 2693.00
16:30:59:531 -> 2695.00
16:30:59:532 -> 2669.00
16:30:59:532 -> 2658.00
16:30:59:533 -> 2623.00
16:30:59:535 -> 2573.00
16:30:59:536 -> 2607.00
16:30:59:537 -> 2656.00
16:30:59:538 -> 2668.00
16:30:59:539 -> 2600.00
16:30:59:541 -> 2510.00
16:30:59:542 -> 2608.00
16:30:59:543 -> 2734.00
16:30:59:545 -> 2725.00
16:30:59:545 -> 2659.00
16:30:59:547 -> 2626.00
16:30:59:548 -> 2583.00
16:30:59:549 -> 2701.00
16:30:59:550 -> 2742.00
16:30:59:551 -> 2581.00
16:30:59:552 -> 2663.00
16:30:59:554 -> 2667.00
16:30:59:555 -> 2568.00
16:30:59:556 -> 2529.00
16:30:59:557 -> 2535.00
16:30:59:676 -> 2555.00
16:30:59:676 -> 2563.00
16:30:59:676 -> 2620.00
16:30:59:676 -> 2684.00
16:30:59:676 -> 2634.00
16:30:59:676 -> 2653.00
16:30:59:706 -> 2684.00
16:30:59:706 -> 2685.00
16:30:59:706 -> 2612.00
16:30:59:706 -> 2682.00
16:30:59:706 -> 2686.00
16:30:59:706 -> 2727.00
16:30:59:706 -> 2636.00
16:30:59:706 -> 2590.00
16:30:59:706 -> 2612.00
16:30:59:706 -> 2608.00
16:30:59:706 -> 2640.00
16:30:59:706 -> 2644.00
16:30:59:706 -> 2597.00
16:30:59:706 -> 2611.00
16:30:59:706 -> 2676.00
16:30:59:706 -> 2784.00
16:30:59:706 -> 2674.00
16:30:59:706 -> 2617.00
16:30:59:706 -> 2664.00
16:30:59:706 -> 2693.00
16:30:59:706 -> 2682.00
16:30:59:706 -> 2619.00
16:30:59:706 -> 2577.00
16:30:59:706 -> 2558.00
16:30:59:706 -> 2581.00
16:30:59:706 -> 2732.00
16:30:59:706 -> 2626.00
16:30:59:706 -> 2635.00
16:30:59:706 -> 2671.00
16:30:59:706 -> 2688.00
16:30:59:706 -> 2589.00
16:30:59:706 -> 2622.00
16:30:59:706 -> 2612.00
16:30:59:706 -> 2718.00
16:30:59:706 -> 2696.00
16:30:59:706 -> 2604.00
16:30:59:706 -> 2657.00
16:30:59:706 -> 2650.00
16:30:59:706 -> 2611.00
16:30:59:706 -> 2563.00
16:30:59:706 -> 2525.00
16:30:59:706 -> 2591.00
16:30:59:706 -> 2886.00
16:30:59:706 -> 2620.00
16:30:59:706 -> 2578.00
16:30:59:706 -> 2574.00
16:30:59:706 -> 2642.00
16:30:59:706 -> 2773.00
16:30:59:706 -> 2716.00
16:30:59:706 -> 2583.00
16:30:59:706 -> 2661.00
16:30:59:706 -> 2664.00
16:30:59:706 -> 2560.00
16:30:59:706 -> 2704.00
16:30:59:706 -> 2691.00
16:30:59:706 -> 2685.00
16:30:59:706 -> 2681.00
16:30:59:706 -> 2632.00
16:30:59:706 -> 2599.00
16:30:59:706 -> 2599.00
16:30:59:706 -> 2629.00
16:30:59:706 -> 2598.00
16:30:59:706 -> 2603.00
16:30:59:706 -> 2641.00
16:30:59:706 -> 2672.00
16:30:59:706 -> 2738.00
16:30:59:706 -> 2698.00
16:30:59:706 -> 2627.00
16:30:59:706 -> 2677.00
16:30:59:706 -> 2609.00
16:30:59:706 -> 2615.00
16:30:59:706 -> 2629.00
16:30:59:706 -> 2583.00
16:30:59:706 -> 2525.00
16:30:59:706 -> 2595.00
16:30:59:706 -> 2636.00
16:30:59:706 -> 2561.00
16:30:59:706 -> 2668.00
16:30:59:706 -> 2788.00
16:30:59:706 -> 2718.00
16:30:59:706 -> 2612.00
16:30:59:706 -> 2581.00
16:30:59:706 -> 2705.00
16:30:59:706 -> 2729.00
16:30:59:706 -> 2579.00
16:30:59:706 -> 2579.00
16:30:59:706 -> 2619.00
16:30:59:706 -> 2767.00
16:30:59:706 -> 2601.00
16:30:59:706 -> 2573.00
16:30:59:706 -> 2612.00
16:30:59:706 -> 2536.00
16:30:59:706 -> 2597.00
16:30:59:706 -> 2797.00
16:30:59:706 -> 2620.00
16:30:59:706 -> 2594.00
16:30:59:706 -> 2598.00
16:30:59:706 -> 2650.00
16:30:59:706 -> 2669.00
16:30:59:715 -> 2672.00
16:30:59:715 -> 2705.00
16:30:59:715 -> 2626.00
16:30:59:715 -> 2631.00
16:30:59:715 -> 2659.00
16:30:59:715 -> 2644.00
16:30:59:715 -> 2671.00
16:30:59:715 -> 2652.00
16:30:59:715 -> 2657.00
16:30:59:715 -> 2552.00
16:30:59:715 -> 2607.00
16:30:59:715 -> 2634.00
16:30:59:715 -> 2607.00
16:30:59:715 -> 2614.00
16:30:59:715 -> 2595.00
16:30:59:715 -> 2601.00
16:30:59:715 -> 2645.00
16:30:59:715 -> 2669.00
16:30:59:715 -> 2709.00
16:30:59:715 -> 2740.00
16:30:59:715 -> 2732.00
16:30:59:715 -> 2646.00
16:30:59:715 -> 2627.00
16:30:59:715 -> 2657.00
16:30:59:715 -> 2623.00
16:30:59:715 -> 2567.00
16:30:59:715 -> 2597.00
16:30:59:755 -> 2629.00
16:30:59:755 -> 2639.00
16:30:59:755 -> 2609.00
16:30:59:755 -> 2605.00
16:30:59:755 -> 2654.00
16:30:59:755 -> 2639.00
16:30:59:755 -> 2616.00
16:30:59:755 -> 2719.00
16:30:59:755 -> 2780.00
16:30:59:755 -> 2690.00
16:30:59:755 -> 2589.00
16:30:59:755 -> 2589.00
16:30:59:755 -> 2620.00
16:30:59:755 -> 2672.00
16:30:59:755 -> 2708.00
16:30:59:755 -> 2561.00
16:30:59:755 -> 2607.00
16:30:59:755 -> 2656.00
16:30:59:755 -> 2596.00
16:30:59:755 -> 2752.00
16:30:59:755 -> 2636.00
16:30:59:755 -> 2683.00
16:30:59:755 -> 2656.00
16:30:59:755 -> 2617.00
16:30:59:755 -> 2621.00
16:30:59:755 -> 2614.00
16:30:59:755 -> 2598.00
16:30:59:774 -> 2665.00
16:30:59:774 -> 2681.00
16:30:59:774 -> 2674.00
16:30:59:774 -> 2658.00
16:30:59:774 -> 2647.00
16:30:59:774 -> 2613.00
16:30:59:774 -> 2572.00
16:30:59:774 -> 2582.00
16:30:59:774 -> 2604.00
16:30:59:774 -> 2639.00
16:30:59:774 -> 2660.00
16:30:59:774 -> 2676.00
16:30:59:774 -> 2683.00
16:30:59:774 -> 2662.00
16:30:59:774 -> 2628.00
16:30:59:774 -> 2630.00
16:30:59:774 -> 2665.00
16:30:59:774 -> 2711.00
16:30:59:774 -> 2656.00
16:30:59:774 -> 2648.00
16:30:59:774 -> 2592.00
16:30:59:774 -> 2612.00
16:30:59:776 -> 2649.00
16:30:59:776 -> 2578.00
16:30:59:777 -> 2596.00
16:30:59:777 -> 2644.00
16:30:59:779 -> 2624.00
16:30:59:780 -> 2610.00
16:30:59:785 -> 2636.00
16:30:59:785 -> 2594.00
16:30:59:785 -> 2578.00
16:30:59:785 -> 2696.00
16:30:59:807 -> 2704.00
16:30:59:807 -> 2700.00
16:30:59:807 -> 2692.00
16:30:59:807 -> 2646.00
16:30:59:807 -> 2645.00
16:30:59:807 -> 2643.00
16:30:59:807 -> 2670.00
16:30:59:807 -> 2724.00
16:30:59:807 -> 2669.00
16:30:59:807 -> 2547.00
16:30:59:807 -> 2543.00
16:30:59:807 -> 2507.00
16:30:59:807 -> 2578.00
16:30:59:807 -> 2653.00
16:30:59:807 -> 2830.00
16:30:59:807 -> 2759.00
16:30:59:807 -> 2554.00
16:30:59:807 -> 2564.00
16:30:59:812 -> 2597.00
16:30:59:812 -> 2652.00
16:30:59:812 -> 2649.00
16:30:59:812 -> 2684.00
16:30:59:814 -> 2671.00
16:30:59:814 -> 2641.00
16:30:59:817 -> 2661.00
16:30:59:817 -> 2654.00
16:30:59:818 -> 2646.00
16:30:59:818 -> 2658.00
16:30:59:820 -> 2607.00
16:30:59:821 -> 2590.00
16:30:59:822 -> 2598.00
16:30:59:823 -> 2615.00
16:30:59:824 -> 2588.00
16:30:59:825 -> 2571.00
16:30:59:826 -> 2555.00
16:30:59:828 -> 2579.00
16:30:59:829 -> 2783.00
16:30:59:830 -> 2804.00
16:30:59:832 -> 2766.00
16:30:59:834 -> 2637.00
16:30:59:834 -> 2619.00
16:30:59:880 -> 2577.00
16:30:59:880 -> 2652.00
16:30:59:880 -> 2642.00
16:30:59:880 -> 2683.00
16:30:59:880 -> 2684.00
16:30:59:880 -> 2699.00
16:30:59:880 -> 2704.00
16:30:59:880 -> 2713.00
16:30:59:880 -> 2674.00
16:30:59:880 -> 2680.00
16:30:59:880 -> 2677.00
16:30:59:880 -> 2651.00
16:30:59:880 -> 2688.00
16:30:59:880 -> 2692.00
16:30:59:880 -> 2637.00
16:30:59:880 -> 2596.00
16:30:59:880 -> 2602.00
16:30:59:888 -> 2587.00
16:30:59:888 -> 2583.00
16:30:59:888 -> 2641.00
16:30:59:888 -> 2719.00
16:30:59:888 -> 2695.00
16:30:59:888 -> 2650.00
16:30:59:888 -> 2646.00
16:30:59:888 -> 2649.00
16:30:59:888 -> 2715.00
16:30:59:888 -> 2655.00
16:30:59:888 -> 2683.00
16:30:59:888 -> 2586.00
16:30:59:888 -> 2592.00
16:30:59:888 -> 2616.00
16:30:59:888 -> 2590.00
16:30:59:888 -> 2628.00
16:30:59:888 -> 2654.00
16:30:59:888 -> 2679.00
16:30:59:888 -> 2686.00
16:30:59:888 -> 2663.00
16:30:59:888 -> 2661.00
16:30:59:888 -> 2669.00
16:30:59:888 -> 2658.00
16:30:59:888 -> 2664.00
16:30:59:888 -> 2715.00
16:30:59:888 -> 2680.00
16:30:59:888 -> 2656.00
16:30:59:888 -> 2675.00
16:30:59:889 -> 2666.00
16:30:59:889 -> 2652.00
16:30:59:891 -> 2601.00
16:30:59:893 -> 2573.00
16:30:59:893 -> 2626.00
16:30:59:895 -> 2621.00
16:30:59:896 -> 2603.00
16:30:59:898 -> 2519.00
16:30:59:898 -> 2573.00
16:30:59:900 -> 2587.00
16:30:59:901 -> 2651.00
16:30:59:902 -> 2702.00
16:30:59:902 -> 2658.00
16:30:59:904 -> 2695.00
16:30:59:905 -> 2766.00
16:30:59:906 -> 2695.00
16:30:59:907 -> 2669.00
16:30:59:908 -> 2671.00
16:30:59:910 -> 2651.00
16:30:59:911 -> 2695.00
16:30:59:912 -> 2663.00
16:30:59:913 -> 2602.00
16:30:59:914 -> 2542.00
16:30:59:916 -> 2559.00
16:30:59:917 -> 2584.00
16:30:59:918 -> 2614.00
16:30:59:919 -> 2648.00
16:30:59:920 -> 2736.00
16:30:59:922 -> 2830.00
16:30:59:924 -> 2547.00
16:30:59:926 -> 2674.00
16:30:59:926 -> 2693.00
16:30:59:932 -> 2716.00
16:30:59:932 -> 2723.00
16:30:59:932 -> 2668.00
16:30:59:932 -> 2697.00
16:30:59:932 -> 2624.00
16:30:59:934 -> 2667.00
16:30:59:934 -> 2760.00
16:30:59:937 -> 2485.00
16:30:59:937 -> 2619.00
16:30:59:937 -> 2609.00
16:30:59:947 -> 2608.00
16:30:59:947 -> 2652.00
16:30:59:947 -> 2668.00
16:30:59:947 -> 2674.00
16:30:59:951 -> 2675.00
16:30:59:951 -> 2622.00
16:30:59:951 -> 2681.00
16:30:59:951 -> 2669.00
16:30:59:951 -> 2668.00
16:30:59:951 -> 2686.00
16:30:59:951 -> 2659.00
16:30:59:952 -> 2610.00
16:30:59:954 -> 2623.00
16:30:59:954 -> 2640.00
16:30:59:955 -> 2625.00
16:30:59:956 -> 2638.00
16:30:59:957 -> 2630.00
16:30:59:958 -> 2644.00
16:30:59:960 -> 2643.00
16:30:59:961 -> 2625.00
16:30:59:962 -> 2626.00
16:30:59:963 -> 2603.00
16:30:59:964 -> 2626.00
16:30:59:965 -> 2668.00
16:30:59:967 -> 2629.00
16:30:59:968 -> 2643.00
16:30:59:969 -> 2699.00
16:30:59:971 -> 2714.00
16:30:59:971 -> 2725.00
16:30:59:973 -> 2672.00
16:30:59:974 -> 2617.00
16:30:59:975 -> 2618.00
16:30:59:976 -> 2589.00
16:30:59:978 -> 2611.00
16:30:59:979 -> 2633.00
16:30:59:980 -> 2628.00
16:30:59:981 -> 2624.00
16:30:59:982 -> 2632.00
16:30:59:983 -> 2666.00
16:30:59:985 -> 2542.00
16:30:59:986 -> 2585.00
16:30:59:987 -> 2613.00
16:30:59:988 -> 2617.00
16:30:59:989 -> 2623.00
16:30:59:990 -> 2633.00
16:30:59:992 -> 2639.00
16:30:59:993 -> 2675.00
16:30:59:994 -> 2657.00
16:30:59:995 -> 2640.00
16:30:59:996 -> 2658.00
16:30:59:998 -> 2644.00
16:30:59:999 -> 2669.00
16:31:00:000 -> 2686.00
16:31:00:003 -> 2609.00
16:31:00:003 -> 2766.00
16:31:00:012 -> 2740.00
16:31:00:012 -> 2613.00
16:31:00:012 -> 2640.00
16:31:00:012 -> 2646.00
16:31:00:012 -> 2670.00
16:31:00:012 -> 2603.00
16:31:00:012 -> 2663.00
16:31:00:012 -> 2806.00
16:31:00:030 -> 2674.00
16:31:00:030 -> 2499.00
16:31:00:030 -> 2608.00
16:31:00:030 -> 2654.00
16:31:00:030 -> 2622.00
16:31:00:030 -> 2604.00
16:31:00:030 -> 2648.00
16:31:00:030 -> 2596.00
16:31:00:030 -> 2620.00
16:31:00:030 -> 2634.00
16:31:00:030 -> 2721.00
16:31:00:030 -> 2666.00
16:31:00:030 -> 2684.00
16:31:00:030 -> 2653.00
16:31:00:030 -> 2618.00
16:31:00:032 -> 2618.00
16:31:00:033 -> 2603.00
16:31:00:033 -> 2625.00
16:31:00:035 -> 2591.00
16:31:00:036 -> 2681.00
16:31:00:037 -> 2612.00
16:31:00:038 -> 2623.00
16:31:00:039 -> 2684.00
16:31:00:045 -> 2660.00
16:31:00:045 -> 2604.00
16:31:00:045 -> 2636.00
16:31:00:054 -> 2720.00
16:31:00:054 -> 2661.00
16:31:00:054 -> 2614.00
16:31:00:054 -> 2634.00
16:31:00:054 -> 2653.00
16:31:00:054 -> 2593.00
16:31:00:054 -> 2623.00
16:31:00:054 -> 2663.00
16:31:00:054 -> 2589.00
16:31:00:067 -> 2617.00
16:31:00:067 -> 2669.00
16:31:00:067 -> 2608.00
16:31:00:067 -> 2632.00
16:31:00:067 -> 2634.00
16:31:00:067 -> 2651.00
16:31:00:067 -> 2659.00
16:31:00:067 -> 2646.00
16:31:00:067 -> 2610.00
16:31:00:067 -> 2552.00
16:31:00:067 -> 2654.00
16:31:00:072 -> 2641.00
16:31:00:072 -> 2623.00
16:31:00:072 -> 2640.00
16:31:00:072 -> 2630.00
16:31:00:073 -> 2628.00
16:31:00:074 -> 2681.00
16:31:00:075 -> 2714.00
16:31:00:076 -> 2763.00
16:31:00:077 -> 2509.00
16:31:00:079 -> 2506.00
16:31:00:080 -> 2586.00
16:31:00:083 -> 2633.00
16:31:00:083 -> 2615.00
16:31:00:085 -> 2675.00
16:31:00:085 -> 2675.00
16:31:00:102 -> 2728.00
16:31:00:102 -> 2689.00
16:31:00:102 -> 2666.00
16:31:00:102 -> 2662.00
16:31:00:102 -> 2680.00
16:31:00:102 -> 2651.00
16:31:00:102 -> 2592.00
16:31:00:102 -> 2565.00
16:31:00:102 -> 2697.00
16:31:00:102 -> 2626.00
16:31:00:102 -> 2607.00
16:31:00:102 -> 2557.00
16:31:00:102 -> 2617.00
16:31:00:102 -> 2652.00
16:31:00:131 -> 2654.00
16:31:00:131 -> 2696.00
16:31:00:131 -> 2700.00
16:31:00:131 -> 2676.00
16:31:00:131 -> 2671.00
16:31:00:131 -> 2672.00
16:31:00:131 -> 2683.00
16:31:00:131 -> 2660.00
16:31:00:131 -> 2674.00
16:31:00:131 -> 2706.00
16:31:00:144 -> 2621.00
16:31:00:144 -> 2569.00
16:31:00:144 -> 2656.00
16:31:00:144 -> 2634.00
16:31:00:144 -> 2621.00
16:31:00:144 -> 2671.00
16:31:00:144 -> 2681.00
16:31:00:144 -> 2615.00
16:31:00:144 -> 2620.00
16:31:00:144 -> 2668.00
16:31:00:144 -> 2691.00
16:31:00:144 -> 2637.00
16:31:00:144 -> 2723.00
16:31:00:144 -> 2746.00
16:31:00:144 -> 2640.00
16:31:00:144 -> 2672.00
16:31:00:144 -> 2678.00
16:31:00:144 -> 2678.00
16:31:00:144 -> 2644.00
16:31:00:144 -> 2484.00
16:31:00:144 -> 2578.00
16:31:00:144 -> 2660.00
16:31:00:144 -> 2643.00
16:31:00:144 -> 2643.00
16:31:00:144 -> 2650.00
16:31:00:146 -> 2658.00
16:31:00:146 -> 2653.00
16:31:00:147 -> 2673.00
16:31:00:148 -> 2631.00
16:31:00:149 -> 2578.00
16:31:00:150 -> 2596.00
16:31:00:151 -> 2512.00
16:31:00:152 -> 2610.00
16:31:00:154 -> 2637.00
16:31:00:155 -> 2615.00
16:31:00:156 -> 2667.00
16:31:00:157 -> 2732.00
16:31:00:158 -> 2654.00
16:31:00:159 -> 2650.00
16:31:00:166 -> 2684.00
16:31:00:166 -> 2694.00
16:31:00:166 -> 2712.00
16:31:00:166 -> 2718.00
16:31:00:166 -> 2758.00
16:31:00:176 -> 2714.00
16:31:00:176 -> 2598.00
16:31:00:176 -> 2639.00
16:31:00:176 -> 2633.00
16:31:00:176 -> 2663.00
16:31:00:176 -> 2652.00
16:31:00:176 -> 2629.00
16:31:00:176 -> 2638.00
16:31:00:179 -> 2637.00
16:31:00:179 -> 2650.00
16:31:00:179 -> 2633.00
16:31:00:180 -> 2655.00
16:31:00:181 -> 2662.00
16:31:00:182 -> 2671.00
16:31:00:183 -> 2673.00
16:31:00:185 -> 2623.00
16:31:00:186 -> 2686.00
16:31:00:190 -> 2659.00
16:31:00:190 -> 2666.00
16:31:00:190 -> 2648.00
16:31:00:192 -> 2670.00
16:31:00:192 -> 2687.00
16:31:00:193 -> 2752.00
16:31:00:194 -> 2553.00
16:31:00:195 -> 2534.00
16:31:00:196 -> 2617.00
16:31:00:198 -> 2593.00
16:31:00:199 -> 2668.00
16:31:00:202 -> 2610.00
16:31:00:202 -> 2638.00
16:31:00:210 -> 2594.00
16:31:00:210 -> 2669.00
16:31:00:210 -> 2634.00
16:31:00:210 -> 2642.00
16:31:00:210 -> 2667.00
16:31:00:210 -> 2659.00
16:31:00:210 -> 2655.00
16:31:00:213 -> 2699.00
16:31:00:213 -> 2678.00
16:31:00:213 -> 2703.00
16:31:00:215 -> 2604.00
16:31:00:230 -> 2614.00
16:31:00:230 -> 2657.00
16:31:00:230 -> 2611.00
16:31:00:230 -> 2656.00
16:31:00:230 -> 2629.00
16:31:00:230 -> 2639.00
16:31:00:230 -> 2626.00
16:31:00:230 -> 2787.00
16:31:00:230 -> 2611.00
16:31:00:230 -> 2528.00
16:31:00:230 -> 2576.00
16:31:00:230 -> 2658.00
16:31:00:230 -> 2678.00
16:31:00:237 -> 2623.00
16:31:00:237 -> 2642.00
16:31:00:237 -> 2632.00
16:31:00:237 -> 2612.00
16:31:00:237 -> 2608.00
16:31:00:237 -> 2672.00
16:31:00:241 -> 2643.00
16:31:00:241 -> 2659.00
16:31:00:241 -> 2594.00
16:31:00:242 -> 2579.00
16:31:00:243 -> 2590.00
16:31:00:244 -> 2570.00
16:31:00:245 -> 2619.00
16:31:00:246 -> 2629.00
16:31:00:248 -> 2695.00
16:31:00:249 -> 2727.00
16:31:00:250 -> 2695.00
16:31:00:251 -> 2616.00
16:31:00:253 -> 2684.00
16:31:00:254 -> 2683.00
16:31:00:255 -> 2624.00
16:31:00:256 -> 2674.00
16:31:00:257 -> 2680.00
16:31:00:258 -> 2573.00
16:31:00:260 -> 2691.00
16:31:00:261 -> 2694.00
16:31:00:262 -> 2654.00
16:31:00:263 -> 2661.00
16:31:00:264 -> 2758.00
16:31:00:266 -> 2612.00
16:31:00:267 -> 2587.00
16:31:00:268 -> 2647.00
16:31:00:269 -> 2689.00
16:31:00:270 -> 2778.00
16:31:00:271 -> 2604.00
16:31:00:273 -> 2545.00
16:31:00:274 -> 2587.00
16:31:00:275 -> 2582.00
16:31:00:276 -> 2656.00
16:31:00:277 -> 2702.00
16:31:00:278 -> 2624.00
16:31:00:280 -> 2558.00
16:31:00:284 -> 2565.00
16:31:00:284 -> 2574.00
16:31:00:284 -> 2604.00
16:31:00:286 -> 2646.00
16:31:00:286 -> 2665.00
16:31:00:287 -> 2579.00
16:31:00:288 -> 2639.00
16:31:00:289 -> 2683.00
16:31:00:290 -> 2729.00
16:31:00:292 -> 2658.00
16:31:00:295 -> 2704.00
16:31:00:300 -> 2713.00
16:31:00:300 -> 2659.00
16:31:00:300 -> 2658.00
16:31:00:300 -> 2658.00
16:31:00:300 -> 2623.00
16:31:00:300 -> 2638.00
16:31:00:306 -> 2650.00
16:31:00:306 -> 2628.00
16:31:00:306 -> 2681.00
16:31:00:306 -> 2692.00
16:31:00:306 -> 2676.00
16:31:00:308 -> 2641.00
16:31:00:308 -> 2612.00
16:31:00:311 -> 2750.00
16:31:00:311 -> 2644.00
16:31:00:312 -> 2465.00
16:31:00:314 -> 2635.00
16:31:00:337 -> 2699.00
16:31:00:337 -> 2648.00
16:31:00:337 -> 2620.00
16:31:00:337 -> 2672.00
16:31:00:337 -> 2688.00
16:31:00:337 -> 2644.00
16:31:00:337 -> 2603.00
16:31:00:337 -> 2630.00
16:31:00:337 -> 2650.00
16:31:00:337 -> 2679.00
16:31:00:337 -> 2720.00
16:31:00:337 -> 2703.00
16:31:00:337 -> 2654.00
16:31:00:337 -> 2663.00
16:31:00:337 -> 2622.00
16:31:00:337 -> 2678.00
16:31:00:337 -> 2630.00
16:31:00:361 -> 2607.00
16:31:00:361 -> 2566.00
16:31:00:361 -> 2578.00
16:31:00:361 -> 2614.00
16:31:00:361 -> 2654.00
16:31:00:361 -> 2665.00
16:31:00:361 -> 2565.00
16:31:00:361 -> 2643.00
16:31:00:361 -> 2646.00
16:31:00:361 -> 2700.00
16:31:00:361 -> 2725.00
16:31:00:361 -> 2728.00
16:31:00:361 -> 2681.00
16:31:00:361 -> 2668.00
16:31:00:372 -> 2604.00
16:31:00:372 -> 2575.00
16:31:00:372 -> 2628.00
16:31:00:372 -> 2684.00
16:31:00:372 -> 2685.00
16:31:00:372 -> 2692.00
16:31:00:372 -> 2663.00
16:31:00:372 -> 2651.00
16:31:00:372 -> 2676.00
16:31:00:372 -> 2635.00
16:31:00:372 -> 2637.00
16:31:00:372 -> 2635.00
16:31:00:372 -> 2720.00
16:31:00:372 -> 2684.00
16:31:00:372 -> 2625.00
16:31:00:372 -> 2634.00
16:31:00:372 -> 2680.00
16:31:00:372 -> 2677.00
16:31:00:427 -> 2656.00
16:31:00:427 -> 2617.00
16:31:00:427 -> 2540.00
16:31:00:427 -> 2633.00
16:31:00:427 -> 2568.00
16:31:00:427 -> 2606.00
16:31:00:427 -> 2613.00
16:31:00:427 -> 2718.00
16:31:00:427 -> 2644.00
16:31:00:427 -> 2664.00
16:31:00:460 -> 2664.00
16:31:00:460 -> 2651.00
16:31:00:460 -> 2710.00
16:31:00:460 -> 2706.00
16:31:00:460 -> 2688.00
16:31:00:460 -> 2684.00
16:31:00:460 -> 2629.00
16:31:00:460 -> 2567.00
16:31:00:460 -> 2568.00
16:31:00:460 -> 2648.00
16:31:00:460 -> 2586.00
16:31:00:460 -> 2615.00
16:31:00:460 -> 2602.00
16:31:00:460 -> 2638.00
16:31:00:460 -> 2644.00
16:31:00:460 -> 2645.00
16:31:00:460 -> 2666.00
16:31:00:460 -> 2717.00
16:31:00:460 -> 2639.00
16:31:00:460 -> 2738.00
16:31:00:460 -> 2697.00
16:31:00:460 -> 2615.00
16:31:00:460 -> 2666.00
16:31:00:460 -> 2686.00
16:31:00:460 -> 2623.00
16:31:00:460 -> 2508.00
16:31:00:460 -> 2561.00
16:31:00:460 -> 2571.00
16:31:00:460 -> 2597.00
16:31:00:460 -> 2611.00
16:31:00:460 -> 2655.00
16:31:00:460 -> 2713.00
16:31:00:460 -> 2659.00
16:31:00:460 -> 2659.00
16:31:00:460 -> 2685.00
16:31:00:460 -> 2684.00
16:31:00:460 -> 2699.00
16:31:00:460 -> 2691.00
16:31:00:460 -> 2682.00
16:31:00:460 -> 2673.00
16:31:00:460 -> 2668.00
16:31:00:460 -> 2633.00
16:31:00:460 -> 2565.00
16:31:00:460 -> 2484.00
16:31:00:460 -> 2604.00
16:31:00:460 -> 2609.00
16:31:00:460 -> 2552.00
16:31:00:460 -> 2570.00
16:31:00:460 -> 2661.00
16:31:00:460 -> 2709.00
16:31:00:460 -> 2689.00
16:31:00:460 -> 2688.00
16:31:00:460 -> 2690.00
16:31:00:460 -> 2685.00
16:31:00:460 -> 2677.00
16:31:00:460 -> 2676.00
16:31:00:460 -> 2521.00
16:31:00:460 -> 2583.00
16:31:00:460 -> 2595.00
16:31:00:460 -> 2652.00
16:31:00:460 -> 2745.00
16:31:00:460 -> 2678.00
16:31:00:460 -> 2669.00
16:31:00:460 -> 2617.00
16:31:00:490 -> 2622.00
16:31:00:490 -> 2644.00
16:31:00:490 -> 2718.00
16:31:00:490 -> 2687.00
16:31:00:490 -> 2680.00
16:31:00:490 -> 2652.00
16:31:00:490 -> 2634.00
16:31:00:490 -> 2590.00
16:31:00:490 -> 2653.00
16:31:00:490 -> 2832.00
16:31:00:490 -> 2532.00
16:31:00:490 -> 2506.00
16:31:00:490 -> 2629.00
16:31:00:490 -> 2692.00
16:31:00:490 -> 2683.00
16:31:00:490 -> 2677.00
16:31:00:490 -> 2627.00
16:31:00:490 -> 2679.00
16:31:00:490 -> 2719.00
16:31:00:490 -> 2687.00
16:31:00:490 -> 2622.00
16:31:00:490 -> 2621.00
16:31:00:490 -> 2655.00
16:31:00:490 -> 2642.00
16:31:00:490 -> 2669.00
16:31:00:538 -> 2710.00
16:31:00:538 -> 2734.00
16:31:00:538 -> 2651.00
16:31:00:538 -> 2586.00
16:31:00:538 -> 2572.00
16:31:00:538 -> 2632.00
16:31:00:538 -> 2694.00
16:31:00:538 -> 2657.00
16:31:00:538 -> 2566.00
16:31:00:538 -> 2646.00
16:31:00:538 -> 2660.00
16:31:00:538 -> 2615.00
16:31:00:538 -> 2665.00
16:31:00:538 -> 2681.00
16:31:00:538 -> 2688.00
16:31:00:555 -> 2685.00
16:31:00:555 -> 2649.00
16:31:00:555 -> 2663.00
16:31:00:555 -> 2649.00
16:31:00:555 -> 2645.00
16:31:00:555 -> 2634.00
16:31:00:555 -> 2614.00
16:31:00:555 -> 2540.00
16:31:00:555 -> 2702.00
16:31:00:555 -> 2687.00
16:31:00:555 -> 2614.00
16:31:00:555 -> 2580.00
16:31:00:555 -> 2629.00
16:31:00:555 -> 2645.00
16:31:00:555 -> 2716.00
16:31:00:555 -> 2703.00
16:31:00:555 -> 2717.00
16:31:00:555 -> 2687.00
16:31:00:555 -> 2559.00
16:31:00:555 -> 2693.00
16:31:00:555 -> 2780.00
16:31:00:555 -> 2592.00
16:31:00:555 -> 2594.00
16:31:00:555 -> 2638.00
16:31:00:555 -> 2603.00
16:31:00:555 -> 2636.00
16:31:00:555 -> 2597.00
16:31:00:555 -> 2599.00
16:31:00:555 -> 2667.00
16:31:00:555 -> 2613.00
16:31:00:555 -> 2688.00
16:31:00:555 -> 2697.00
16:31:00:555 -> 2717.00
16:31:00:555 -> 2712.00
16:31:00:555 -> 2665.00
16:31:00:555 -> 2681.00
16:31:00:555 -> 2691.00
16:31:00:555 -> 2678.00
16:31:00:555 -> 2729.00
16:31:00:555 -> 2698.00
16:31:00:557 -> 2655.00
16:31:00:557 -> 2662.00
16:31:00:558 -> 2673.00
16:31:00:559 -> 2694.00
16:31:00:561 -> 2747.00
16:31:00:562 -> 2711.00
16:31:00:563 -> 2546.00
16:31:00:564 -> 2515.00
16:31:00:565 -> 2638.00
16:31:00:567 -> 2652.00
16:31:00:568 -> 2710.00
16:31:00:569 -> 2616.00
16:31:00:570 -> 2640.00
16:31:00:571 -> 2700.00
16:31:00:572 -> 2690.00
16:31:00:574 -> 2573.00
16:31:00:575 -> 2539.00
16:31:00:576 -> 2582.00
16:31:00:577 -> 2660.00
16:31:00:579 -> 2702.00
16:31:00:580 -> 2659.00
16:31:00:581 -> 2609.00
16:31:00:582 -> 2518.00
16:31:00:583 -> 2709.00
16:31:00:584 -> 2751.00
16:31:00:586 -> 2653.00
16:31:00:587 -> 2547.00
16:31:00:588 -> 2773.00
16:31:00:589 -> 2677.00
16:31:00:590 -> 2628.00
16:31:00:594 -> 2680.00
16:31:00:594 -> 2567.00
16:31:00:594 -> 2535.00
16:31:00:596 -> 2542.00
16:31:00:621 -> 2749.00
16:31:00:621 -> 2753.00
16:31:00:621 -> 2633.00
16:31:00:621 -> 2635.00
16:31:00:621 -> 2646.00
16:31:00:621 -> 2615.00
16:31:00:621 -> 2585.00
16:31:00:621 -> 2597.00
16:31:00:621 -> 2582.00
16:31:00:621 -> 2544.00
16:31:00:621 -> 2566.00
16:31:00:621 -> 2619.00
16:31:00:621 -> 2658.00
16:31:00:621 -> 2625.00
16:31:00:621 -> 2593.00
16:31:00:621 -> 2589.00
16:31:00:621 -> 2637.00
16:31:00:645 -> 2664.00
16:31:00:645 -> 2675.00
16:31:00:645 -> 2706.00
16:31:00:645 -> 2693.00
16:31:00:645 -> 2688.00
16:31:00:645 -> 2687.00
16:31:00:645 -> 2693.00
16:31:00:645 -> 2655.00
16:31:00:645 -> 2712.00
16:31:00:645 -> 2679.00
16:31:00:645 -> 2612.00
16:31:00:645 -> 2608.00
16:31:00:645 -> 2643.00
16:31:00:645 -> 2623.00
16:31:00:645 -> 2672.00
16:31:00:645 -> 2652.00
16:31:00:645 -> 2598.00
16:31:00:645 -> 2674.00
16:31:00:645 -> 2619.00
16:31:00:645 -> 2684.00
16:31:00:646 -> 2618.00
16:31:00:646 -> 2678.00
16:31:00:646 -> 2662.00
16:31:00:646 -> 2648.00
16:31:00:646 -> 2651.00
16:31:00:647 -> 2687.00
16:31:00:647 -> 2688.00
16:31:00:649 -> 2680.00
16:31:00:650 -> 2616.00
16:31:00:651 -> 2551.00
16:31:00:652 -> 2541.00
16:31:00:653 -> 2650.00
16:31:00:655 -> 2610.00
16:31:00:656 -> 2740.00
16:31:00:657 -> 2638.00
16:31:00:658 -> 2595.00
16:31:00:659 -> 2633.00
16:31:00:661 -> 2736.00
16:31:00:662 -> 2792.00
16:31:00:663 -> 2703.00
16:31:00:664 -> 2651.00
16:31:00:665 -> 2531.00
16:31:00:668 -> 2581.00
16:31:00:668 -> 2722.00
16:31:00:678 -> 2715.00
16:31:00:678 -> 2572.00
16:31:00:678 -> 2578.00
16:31:00:678 -> 2603.00
16:31:00:678 -> 2604.00
16:31:00:678 -> 2725.00
16:31:00:678 -> 2709.00
16:31:00:679 -> 2648.00
16:31:00:679 -> 2629.00
16:31:00:682 -> 2646.00
16:31:00:682 -> 2689.00
16:31:00:682 -> 2597.00
16:31:00:693 -> 2549.00
16:31:00:693 -> 2647.00
16:31:00:693 -> 2666.00
16:31:00:693 -> 2721.00
16:31:00:693 -> 2648.00
16:31:00:693 -> 2450.00
16:31:00:693 -> 2558.00
16:31:00:693 -> 2754.00
16:31:00:693 -> 2575.00
16:31:00:695 -> 2638.00
16:31:00:696 -> 2742.00
16:31:00:696 -> 2666.00
16:31:00:699 -> 2640.00
16:31:00:699 -> 2666.00
16:31:00:700 -> 2641.00
16:31:00:701 -> 2659.00
16:31:00:710 -> 2681.00
16:31:00:710 -> 2612.00
16:31:00:710 -> 2666.00
16:31:00:710 -> 2653.00
16:31:00:710 -> 2660.00
16:31:00:710 -> 2645.00
16:31:00:711 -> 2630.00
16:31:00:711 -> 2637.00
16:31:00:715 -> 2641.00
16:31:00:715 -> 2632.00
16:31:00:715 -> 2586.00
16:31:00:716 -> 2618.00
16:31:00:717 -> 2583.00
16:31:00:718 -> 2591.00
16:31:00:719 -> 2628.00
16:31:00:720 -> 2615.00
16:31:00:721 -> 2573.00
16:31:00:723 -> 2795.00
16:31:00:724 -> 2694.00
16:31:00:725 -> 2567.00
16:31:00:726 -> 2618.00
16:31:00:728 -> 2664.00
16:31:00:729 -> 2544.00
16:31:00:730 -> 2634.00
16:31:00:731 -> 2671.00
16:31:00:732 -> 2580.00
16:31:00:733 -> 2694.00
16:31:00:734 -> 2723.00
16:31:00:736 -> 2564.00
16:31:00:737 -> 2630.00
16:31:00:738 -> 2666.00
16:31:00:739 -> 2689.00
16:31:00:740 -> 2663.00
16:31:00:742 -> 2680.00
16:31:00:743 -> 2617.00
16:31:00:744 -> 2607.00
16:31:00:745 -> 2644.00
16:31:00:746 -> 2742.00
16:31:00:748 -> 2711.00
16:31:00:752 -> 2710.00
16:31:00:752 -> 2632.00
16:31:00:752 -> 2623.00
16:31:00:753 -> 2609.00
16:31:00:754 -> 2576.00
16:31:00:755 -> 2568.00
16:31:00:756 -> 2620.00
16:31:00:757 -> 2597.00
16:31:00:758 -> 2621.00
16:31:00:759 -> 2665.00
16:31:00:761 -> 2723.00
16:31:00:762 -> 2612.00
16:31:00:763 -> 2648.00
16:31:00:764 -> 2663.00
16:31:00:767 -> 2658.00
16:31:00:767 -> 2653.00
16:31:00:769 -> 2656.00
16:31:00:769 -> 2613.00
16:31:00:787 -> 2633.00
16:31:00:787 -> 2666.00
16:31:00:787 -> 2611.00
16:31:00:787 -> 2609.00
16:31:00:787 -> 2570.00
16:31:00:787 -> 2593.00
16:31:00:787 -> 2632.00
16:31:00:787 -> 2595.00
16:31:00:787 -> 2681.00
16:31:00:787 -> 2763.00
16:31:00:787 -> 2614.00
16:31:00:787 -> 2658.00
16:31:00:787 -> 2714.00
16:31:00:792 -> 2593.00
16:31:00:792 -> 2705.00
16:31:00:792 -> 2669.00
16:31:00:792 -> 2653.00
16:31:00:792 -> 2645.00
16:31:00:792 -> 2696.00
16:31:00:801 -> 2620.00
16:31:00:801 -> 2557.00
16:31:00:801 -> 2499.00
16:31:00:801 -> 2538.00
16:31:00:801 -> 2602.00
16:31:00:801 -> 2619.00
16:31:00:802 -> 2654.00
16:31:00:802 -> 2636.00
16:31:00:805 -> 2658.00
16:31:00:805 -> 2711.00
16:31:00:805 -> 2637.00
16:31:00:806 -> 2665.00
16:31:00:807 -> 2653.00
16:31:00:808 -> 2656.00
16:31:00:809 -> 2647.00
16:31:00:811 -> 2665.00
16:31:00:812 -> 2641.00
16:31:00:813 -> 2600.00
16:31:00:814 -> 2552.00
16:31:00:815 -> 2622.00
16:31:00:817 -> 2709.00
16:31:00:818 -> 2660.00
16:31:00:819 -> 2636.00
16:31:00:820 -> 2664.00
16:31:00:821 -> 2681.00
16:31:00:823 -> 2669.00
16:31:00:824 -> 2632.00
16:31:00:825 -> 2591.00
16:31:00:826 -> 2597.00
16:31:00:827 -> 2644.00
16:31:00:828 -> 2673.00
16:31:00:830 -> 2676.00
16:31:00:831 -> 2702.00
16:31:00:832 -> 2672.00
16:31:00:833 -> 2639.00
16:31:00:834 -> 2589.00
16:31:00:836 -> 2539.00
16:31:00:837 -> 2562.00
16:31:00:838 -> 2633.00
16:31:00:839 -> 2655.00
16:31:00:840 -> 2575.00
16:31:00:842 -> 2529.00
16:31:00:843 -> 2683.00
16:31:00:844 -> 2703.00
16:31:00:846 -> 2674.00
16:31:00:848 -> 2590.00
16:31:00:848 -> 2633.00
16:31:00:849 -> 2698.00
16:31:00:850 -> 2693.00
16:31:00:851 -> 2703.00
16:31:00:852 -> 2697.00
16:31:00:853 -> 2663.00
16:31:00:855 -> 2633.00
16:31:00:858 -> 2654.00
16:31:00:858 -> 2734.00
16:31:00:858 -> 2740.00
16:31:00:860 -> 2551.00
16:31:00:872 -> 2599.00
16:31:00:872 -> 2660.00
16:31:00:872 -> 2713.00
16:31:00:872 -> 2729.00
16:31:00:872 -> 2737.00
16:31:00:872 -> 2598.00
16:31:00:872 -> 2514.00
16:31:00:872 -> 2607.00
16:31:00:872 -> 2622.00
16:31:00:873 -> 2703.00
16:31:00:873 -> 2697.00
16:31:00:879 -> 2662.00
16:31:00:879 -> 2688.00
16:31:00:879 -> 2667.00
16:31:00:879 -> 2623.00
16:31:00:879 -> 2627.00
16:31:00:880 -> 2673.00
16:31:00:881 -> 2706.00
16:31:00:882 -> 2688.00
16:31:00:883 -> 2675.00
16:31:00:884 -> 2633.00
16:31:00:886 -> 2626.00
16:31:00:887 -> 2649.00
16:31:00:890 -> 2658.00
16:31:00:890 -> 2663.00
16:31:00:891 -> 2649.00
16:31:00:892 -> 2607.00
16:31:00:893 -> 2600.00
16:31:00:894 -> 2594.00
16:31:00:895 -> 2551.00
16:31:00:896 -> 2639.00
16:31:00:898 -> 2669.00
16:31:00:899 -> 2640.00
16:31:00:900 -> 2671.00
16:31:00:901 -> 2656.00
16:31:00:902 -> 2646.00
16:31:00:903 -> 2670.00
16:31:00:905 -> 2676.00
16:31:00:906 -> 2658.00
16:31:00:907 -> 2684.00
16:31:00:908 -> 2688.00
16:31:00:909 -> 2679.00
16:31:00:911 -> 2613.00
16:31:00:912 -> 2624.00
16:31:00:913 -> 2627.00
16:31:00:914 -> 2621.00
16:31:00:915 -> 2589.00
16:31:00:917 -> 2647.00
16:31:00:918 -> 2664.00
16:31:00:919 -> 2605.00
16:31:00:920 -> 2630.00
16:31:00:921 -> 2791.00
16:31:00:923 -> 2713.00
16:31:00:924 -> 2660.00
16:31:00:925 -> 2689.00
16:31:00:926 -> 2682.00
16:31:00:951 -> 2669.00
16:31:00:953 -> 2632.00
16:31:00:953 -> 2641.00
16:31:00:953 -> 2650.00
16:31:00:953 -> 2631.00
16:31:00:953 -> 2613.00
16:31:00:953 -> 2645.00
16:31:00:953 -> 2564.00
16:31:00:953 -> 2542.00
16:31:00:953 -> 2633.00
16:31:00:953 -> 2684.00
16:31:00:953 -> 2756.00
16:31:00:953 -> 2675.00
16:31:00:953 -> 2629.00
16:31:00:953 -> 2636.00
16:31:00:953 -> 2693.00
16:31:00:953 -> 2740.00
16:31:00:953 -> 2660.00
16:31:00:953 -> 2646.00
16:31:00:953 -> 2645.00
16:31:00:953 -> 2611.00
16:31:00:953 -> 2626.00
16:31:00:953 -> 2605.00
16:31:00:955 -> 2577.00
16:31:00:956 -> 2619.00
16:31:00:957 -> 2632.00
16:31:00:958 -> 2625.00
16:31:00:959 -> 2652.00
16:31:00:961 -> 2590.00
16:31:00:962 -> 2587.00
16:31:00:963 -> 2653.00
16:31:00:964 -> 2714.00
16:31:00:965 -> 2752.00
16:31:00:966 -> 2649.00
16:31:00:968 -> 2627.00
16:31:00:969 -> 2633.00
16:31:00:970 -> 2583.00
16:31:00:971 -> 2656.00
16:31:00:972 -> 2654.00
16:31:00:974 -> 2662.00
16:31:00:975 -> 2639.00
16:31:00:976 -> 2582.00
16:31:00:977 -> 2620.00
16:31:00:978 -> 2685.00
16:31:00:980 -> 2678.00
16:31:00:981 -> 2686.00
16:31:00:982 -> 2669.00
16:31:00:983 -> 2666.00
16:31:00:984 -> 2585.00
16:31:00:986 -> 2580.00
16:31:00:987 -> 2612.00
16:31:00:988 -> 2686.00
16:31:00:989 -> 2714.00
16:31:00:990 -> 2616.00
16:31:00:992 -> 2686.00
16:31:00:993 -> 2673.00
16:31:00:994 -> 2677.00
16:31:01:004 -> 2652.00
16:31:01:004 -> 2635.00
16:31:01:004 -> 2624.00
16:31:01:004 -> 2627.00
16:31:01:004 -> 2645.00
16:31:01:004 -> 2609.00
16:31:01:004 -> 2641.00
16:31:01:016 -> 2697.00
16:31:01:016 -> 2699.00
16:31:01:016 -> 2634.00
16:31:01:016 -> 2629.00
16:31:01:016 -> 2685.00
16:31:01:016 -> 2700.00
16:31:01:016 -> 2648.00
16:31:01:016 -> 2646.00
16:31:01:016 -> 2642.00
16:31:01:016 -> 2690.00
16:31:01:029 -> 2660.00
16:31:01:029 -> 2648.00
16:31:01:029 -> 2602.00
16:31:01:029 -> 2672.00
16:31:01:029 -> 2597.00
16:31:01:029 -> 2611.00
16:31:01:029 -> 2620.00
16:31:01:029 -> 2648.00
16:31:01:029 -> 2689.00
16:31:01:029 -> 2727.00
16:31:01:029 -> 2727.00
16:31:01:029 -> 2610.00
16:31:01:033 -> 2633.00
16:31:01:033 -> 2633.00
16:31:01:033 -> 2665.00
16:31:01:033 -> 2623.00
16:31:01:036 -> 2578.00
16:31:01:036 -> 2557.00
16:31:01:038 -> 2666.00
16:31:01:038 -> 2666.00
16:31:01:039 -> 2663.00
16:31:01:040 -> 2660.00
16:31:01:042 -> 2674.00
16:31:01:043 -> 2665.00
16:31:01:044 -> 2581.00
16:31:01:045 -> 2584.00
16:31:01:046 -> 2714.00
16:31:01:048 -> 2526.00
16:31:01:049 -> 2550.00
16:31:01:050 -> 2775.00
16:31:01:051 -> 2737.00
16:31:01:052 -> 2544.00
16:31:01:053 -> 2627.00
16:31:01:055 -> 2652.00
16:31:01:056 -> 2528.00
16:31:01:057 -> 2587.00
16:31:01:058 -> 2695.00
16:31:01:059 -> 2685.00
16:31:01:062 -> 2642.00
16:31:01:062 -> 2671.00
16:31:01:064 -> 2726.00
16:31:01:070 -> 2716.00
16:31:01:070 -> 2704.00
16:31:01:070 -> 2724.00
16:31:01:070 -> 2706.00
16:31:01:070 -> 2662.00
16:31:01:075 -> 2654.00
16:31:01:075 -> 2709.00
16:31:01:075 -> 2709.00
16:31:01:075 -> 2631.00
16:31:01:076 -> 2661.00
16:31:01:076 -> 2597.00
16:31:01:077 -> 2615.00
16:31:01:078 -> 2528.00
16:31:01:080 -> 2626.00
16:31:01:084 -> 2653.00
16:31:01:084 -> 2677.00
16:31:01:084 -> 2665.00
16:31:01:085 -> 2664.00
16:31:01:086 -> 2633.00
16:31:01:095 -> 2727.00
16:31:01:095 -> 2687.00
16:31:01:095 -> 2581.00
16:31:01:095 -> 2620.00
16:31:01:137 -> 2599.00
16:31:01:137 -> 2581.00
16:31:01:137 -> 2746.00
16:31:01:137 -> 2665.00
16:31:01:137 -> 2718.00
16:31:01:137 -> 2577.00
16:31:01:137 -> 2586.00
16:31:01:137 -> 2688.00
16:31:01:137 -> 2619.00
16:31:01:137 -> 2679.00
16:31:01:137 -> 2789.00
16:31:01:137 -> 2629.00
16:31:01:137 -> 2638.00
16:31:01:137 -> 2635.00
16:31:01:137 -> 2641.00
16:31:01:137 -> 2688.00
16:31:01:137 -> 2755.00
16:31:01:137 -> 2665.00
16:31:01:137 -> 2658.00
16:31:01:137 -> 2626.00
16:31:01:137 -> 2568.00
16:31:01:137 -> 2646.00
16:31:01:137 -> 2685.00
16:31:01:137 -> 2583.00
16:31:01:137 -> 2501.00
16:31:01:137 -> 2594.00
16:31:01:137 -> 2623.00
16:31:01:137 -> 2694.00
16:31:01:137 -> 2688.00
16:31:01:137 -> 2709.00
16:31:01:137 -> 2652.00
16:31:01:137 -> 2664.00
16:31:01:137 -> 2669.00
16:31:01:137 -> 2600.00
16:31:01:137 -> 2629.00
16:31:01:137 -> 2627.00
16:31:01:137 -> 2660.00
16:31:01:137 -> 2656.00
16:31:01:137 -> 2618.00
16:31:01:183 -> 2658.00
16:31:01:183 -> 2711.00
16:31:01:183 -> 2695.00
16:31:01:183 -> 2581.00
16:31:01:183 -> 2491.00
16:31:01:183 -> 2506.00
16:31:01:183 -> 2699.00
16:31:01:183 -> 2696.00
16:31:01:183 -> 2667.00
16:31:01:183 -> 2633.00
16:31:01:183 -> 2503.00
16:31:01:183 -> 2518.00
16:31:01:183 -> 2722.00
16:31:01:183 -> 2872.00
16:31:01:183 -> 2755.00
16:31:01:183 -> 2583.00
16:31:01:183 -> 2573.00
16:31:01:183 -> 2630.00
16:31:01:183 -> 2558.00
16:31:01:183 -> 2619.00
16:31:01:183 -> 2646.00
16:31:01:183 -> 2703.00
16:31:01:183 -> 2807.00
16:31:01:183 -> 2722.00
16:31:01:183 -> 2745.00
16:31:01:183 -> 2559.00
16:31:01:183 -> 2610.00
16:31:01:183 -> 2708.00
16:31:01:183 -> 2623.00
16:31:01:230 -> 2596.00
16:31:01:230 -> 2613.00
16:31:01:230 -> 2532.00
16:31:01:230 -> 2556.00
16:31:01:230 -> 2578.00
16:31:01:230 -> 2645.00
16:31:01:230 -> 2674.00
16:31:01:230 -> 2596.00
16:31:01:230 -> 2634.00
16:31:01:230 -> 2642.00
16:31:01:230 -> 2763.00
16:31:01:230 -> 2804.00
16:31:01:230 -> 2682.00
16:31:01:230 -> 2660.00
16:31:01:230 -> 2631.00
16:31:01:230 -> 2649.00
16:31:01:230 -> 2603.00
16:31:01:230 -> 2618.00
16:31:01:230 -> 2636.00
16:31:01:230 -> 2572.00
16:31:01:230 -> 2618.00
16:31:01:230 -> 2639.00
16:31:01:230 -> 2668.00
16:31:01:230 -> 2700.00
16:31:01:230 -> 2686.00
16:31:01:230 -> 2639.00
16:31:01:230 -> 2602.00
16:31:01:230 -> 2642.00
16:31:01:230 -> 2619.00
16:31:01:230 -> 2721.00
16:31:01:230 -> 2672.00
16:31:01:230 -> 2686.00
16:31:01:230 -> 2697.00
16:31:01:230 -> 2585.00
16:31:01:230 -> 2619.00
16:31:01:230 -> 2639.00
16:31:01:230 -> 2542.00
16:31:01:230 -> 2508.00
16:31:01:230 -> 2623.00
16:31:01:230 -> 2502.00
16:31:01:230 -> 2587.00
16:31:01:230 -> 2745.00
16:31:01:230 -> 2616.00
16:31:01:230 -> 2652.00
16:31:01:230 -> 2657.00
16:31:01:230 -> 2654.00
16:31:01:230 -> 2696.00
16:31:01:234 -> 2619.00
16:31:01:234 -> 2652.00
16:31:01:234 -> 2575.00
16:31:01:234 -> 2556.00
16:31:01:234 -> 2524.00
16:31:01:236 -> 2612.00
16:31:01:236 -> 2615.00
16:31:01:239 -> 2630.00
16:31:01:239 -> 2669.00
16:31:01:239 -> 2649.00
16:31:01:249 -> 2653.00
16:31:01:249 -> 2711.00
16:31:01:249 -> 2731.00
16:31:01:249 -> 2697.00
16:31:01:249 -> 2688.00
16:31:01:249 -> 2653.00
16:31:01:249 -> 2581.00
16:31:01:249 -> 2595.00
16:31:01:251 -> 2685.00
16:31:01:260 -> 2697.00
16:31:01:260 -> 2658.00
16:31:01:260 -> 2676.00
16:31:01:260 -> 2581.00
16:31:01:260 -> 2589.00
16:31:01:260 -> 2627.00
16:31:01:260 -> 2649.00
16:31:01:260 -> 2614.00
16:31:01:264 -> 2599.00
16:31:01:264 -> 2647.00
16:31:01:264 -> 2654.00
16:31:01:265 -> 2816.00
16:31:01:266 -> 2654.00
16:31:01:267 -> 2620.00
16:31:01:268 -> 2526.00
16:31:01:269 -> 2676.00
16:31:01:270 -> 2706.00
16:31:01:271 -> 2685.00
16:31:01:272 -> 2709.00
16:31:01:275 -> 2652.00
16:31:01:276 -> 2619.00
16:31:01:276 -> 2502.00
16:31:01:277 -> 2513.00
16:31:01:279 -> 2694.00
16:31:01:280 -> 2574.00
16:31:01:281 -> 2675.00
16:31:01:284 -> 2523.00
16:31:01:284 -> 2624.00
16:31:01:288 -> 2731.00
16:31:01:288 -> 2760.00
16:31:01:288 -> 2790.00
16:31:01:289 -> 2689.00
16:31:01:290 -> 2576.00
16:31:01:291 -> 2636.00
16:31:01:297 -> 2801.00
16:31:01:297 -> 2780.00
16:31:01:297 -> 2470.00
16:31:01:297 -> 2540.00
16:31:01:297 -> 2759.00
16:31:01:297 -> 2524.00
16:31:01:299 -> 2552.00
16:31:01:300 -> 2660.00
16:31:01:301 -> 2644.00
16:31:01:302 -> 2668.00
16:31:01:303 -> 2636.00
16:31:01:305 -> 2648.00
16:31:01:306 -> 2594.00
16:31:01:307 -> 2635.00
16:31:01:308 -> 2622.00
16:31:01:309 -> 2664.00
16:31:01:310 -> 2740.00
16:31:01:313 -> 2715.00
16:31:01:314 -> 2681.00
16:31:01:315 -> 2599.00
16:31:01:315 -> 2590.00
16:31:01:316 -> 2620.00
16:31:01:318 -> 2663.00
16:31:01:319 -> 2642.00
16:31:01:320 -> 2648.00
16:31:01:321 -> 2676.00
16:31:01:322 -> 2684.00
16:31:01:324 -> 2647.00
16:31:01:325 -> 2673.00
16:31:01:326 -> 2706.00
16:31:01:327 -> 2709.00
16:31:01:328 -> 2583.00
16:31:01:330 -> 2622.00
16:31:01:331 -> 2630.00
16:31:01:332 -> 2622.00
16:31:01:333 -> 2604.00
16:31:01:334 -> 2602.00
16:31:01:335 -> 2590.00
16:31:01:337 -> 2642.00
16:31:01:338 -> 2657.00
16:31:01:339 -> 2652.00
16:31:01:340 -> 2666.00
16:31:01:341 -> 2658.00
16:31:01:343 -> 2651.00
16:31:01:344 -> 2654.00
16:31:01:345 -> 2642.00
16:31:01:346 -> 2589.00
16:31:01:347 -> 2659.00
16:31:01:349 -> 2726.00
16:31:01:350 -> 2673.00
16:31:01:351 -> 2595.00
16:31:01:352 -> 2438.00
16:31:01:353 -> 2514.00
16:31:01:354 -> 2817.00
16:31:01:356 -> 2681.00
16:31:01:357 -> 2591.00
16:31:01:358 -> 2658.00
16:31:01:359 -> 2545.00
16:31:01:361 -> 2610.00
16:31:01:363 -> 2636.00
16:31:01:363 -> 2634.00
16:31:01:364 -> 2704.00
16:31:01:365 -> 2700.00
16:31:01:367 -> 2658.00
16:31:01:368 -> 2626.00
16:31:01:369 -> 2649.00
16:31:01:370 -> 2710.00
16:31:01:371 -> 2729.00
16:31:01:372 -> 2627.00
16:31:01:374 -> 2601.00
16:31:01:375 -> 2562.00
16:31:01:376 -> 2664.00
16:31:01:377 -> 2640.00
16:31:01:378 -> 2630.00
16:31:01:380 -> 2709.00
16:31:01:381 -> 2611.00
16:31:01:382 -> 2549.00
16:31:01:383 -> 2606.00
16:31:01:384 -> 2599.00
16:31:01:386 -> 2600.00
16:31:01:387 -> 2554.00
16:31:01:388 -> 2658.00
16:31:01:389 -> 2514.00
16:31:01:390 -> 2523.00
16:31:01:391 -> 2576.00
16:31:01:393 -> 2661.00
16:31:01:394 -> 2658.00
16:31:01:395 -> 2589.00
16:31:01:396 -> 2526.00
16:31:01:397 -> 2670.00
16:31:01:399 -> 2893.00
16:31:01:400 -> 2769.00
16:31:01:401 -> 2640.00
16:31:01:402 -> 2690.00
16:31:01:403 -> 2627.00
16:31:01:404 -> 2701.00
16:31:01:406 -> 2629.00
16:31:01:407 -> 2622.00
16:31:01:408 -> 2648.00
16:31:01:409 -> 2651.00
16:31:01:410 -> 2626.00
16:31:01:415 -> 2693.00
16:31:01:415 -> 2677.00
16:31:01:415 -> 2647.00
16:31:01:416 -> 2649.00
16:31:01:417 -> 2605.00
16:31:01:418 -> 2658.00
16:31:01:419 -> 2670.00
16:31:01:420 -> 2528.00
16:31:01:421 -> 2637.00
16:31:01:423 -> 2690.00
16:31:01:425 -> 2788.00
16:31:01:425 -> 2575.00
16:31:01:426 -> 2633.00
16:31:01:440 -> 2689.00
16:31:01:440 -> 2661.00
16:31:01:440 -> 2627.00
16:31:01:440 -> 2662.00
16:31:01:440 -> 2674.00
16:31:01:440 -> 2660.00
16:31:01:440 -> 2618.00
16:31:01:443 -> 2645.00
16:31:01:443 -> 2617.00
16:31:01:443 -> 2600.00
16:31:01:443 -> 2598.00
16:31:01:443 -> 2622.00
16:31:01:443 -> 2623.00
16:31:01:443 -> 2662.00
16:31:01:444 -> 2698.00
16:31:01:445 -> 2591.00
16:31:01:446 -> 2644.00
16:31:01:447 -> 2720.00
16:31:01:449 -> 2706.00
16:31:01:475 -> 2670.00
16:31:01:477 -> 2678.00
16:31:01:477 -> 2638.00
16:31:01:477 -> 2630.00
16:31:01:477 -> 2587.00
16:31:01:477 -> 2598.00
16:31:01:477 -> 2631.00
16:31:01:477 -> 2615.00
16:31:01:477 -> 2647.00
16:31:01:477 -> 2632.00
16:31:01:477 -> 2572.00
16:31:01:477 -> 2627.00
16:31:01:477 -> 2675.00
16:31:01:477 -> 2660.00
16:31:01:477 -> 2639.00
16:31:01:477 -> 2658.00
16:31:01:477 -> 2702.00
16:31:01:477 -> 2672.00
16:31:01:477 -> 2646.00
16:31:01:477 -> 2712.00
16:31:01:477 -> 2506.00
16:31:01:477 -> 2623.00
16:31:01:477 -> 2689.00
16:31:01:477 -> 2606.00
16:31:01:478 -> 2643.00
16:31:01:479 -> 2634.00
16:31:01:481 -> 2635.00
16:31:01:482 -> 2596.00
16:31:01:483 -> 2575.00
16:31:01:484 -> 2610.00
16:31:01:485 -> 2666.00
16:31:01:487 -> 2688.00
16:31:01:488 -> 2707.00
16:31:01:489 -> 2744.00
16:31:01:490 -> 2636.00
16:31:01:491 -> 2537.00
16:31:01:493 -> 2570.00
16:31:01:532 -> 2632.00
16:31:01:532 -> 2658.00
16:31:01:532 -> 2599.00
16:31:01:532 -> 2670.00
16:31:01:532 -> 2623.00
16:31:01:532 -> 2721.00
16:31:01:532 -> 2682.00
16:31:01:532 -> 2642.00
16:31:01:532 -> 2649.00
16:31:01:532 -> 2604.00
16:31:01:532 -> 2661.00
16:31:01:532 -> 2653.00
16:31:01:532 -> 2660.00
16:31:01:536 -> 2664.00
16:31:01:536 -> 2652.00
16:31:01:536 -> 2634.00
16:31:01:536 -> 2598.00
16:31:01:536 -> 2547.00
16:31:01:536 -> 2572.00
16:31:01:536 -> 2627.00
16:31:01:536 -> 2669.00
16:31:01:536 -> 2609.00
16:31:01:536 -> 2636.00
16:31:01:536 -> 2647.00
16:31:01:536 -> 2624.00
16:31:01:536 -> 2590.00
16:31:01:536 -> 2592.00
16:31:01:536 -> 2595.00
16:31:01:536 -> 2774.00
16:31:01:536 -> 2814.00
16:31:01:536 -> 2617.00
16:31:01:536 -> 2625.00
16:31:01:536 -> 2599.00
16:31:01:536 -> 2639.00
16:31:01:536 -> 2618.00
16:31:01:536 -> 2607.00
16:31:01:537 -> 2570.00
16:31:01:538 -> 2616.00
16:31:01:539 -> 2655.00
16:31:01:540 -> 2699.00
16:31:01:541 -> 2666.00
16:31:01:543 -> 2751.00
16:31:01:544 -> 2687.00
16:31:01:545 -> 2665.00
16:31:01:546 -> 2664.00
16:31:01:547 -> 2659.00
16:31:01:548 -> 2663.00
16:31:01:550 -> 2635.00
16:31:01:551 -> 2624.00
16:31:01:552 -> 2639.00
16:31:01:553 -> 2649.00
16:31:01:554 -> 2610.00
16:31:01:556 -> 2573.00
16:31:01:557 -> 2563.00
16:31:01:558 -> 2665.00
16:31:01:559 -> 2616.00
16:31:01:560 -> 2668.00
16:31:01:562 -> 2640.00
16:31:01:563 -> 2633.00
16:31:01:564 -> 2657.00
16:31:01:565 -> 2678.00
16:31:01:566 -> 2717.00
16:31:01:568 -> 2716.00
16:31:01:569 -> 2708.00
16:31:01:570 -> 2695.00
16:31:01:571 -> 2711.00
16:31:01:572 -> 2706.00
16:31:01:573 -> 2679.00
16:31:01:575 -> 2509.00
16:31:01:578 -> 2570.00
16:31:01:587 -> 2614.00
16:31:01:587 -> 2610.00
16:31:01:587 -> 2625.00
16:31:01:587 -> 2637.00
16:31:01:587 -> 2596.00
16:31:01:587 -> 2572.00
16:31:01:587 -> 2534.00
16:31:01:605 -> 2601.00
16:31:01:605 -> 2647.00
16:31:01:605 -> 2646.00
16:31:01:605 -> 2699.00
16:31:01:605 -> 2598.00
16:31:01:605 -> 2660.00
16:31:01:605 -> 2741.00
16:31:01:605 -> 2647.00
16:31:01:605 -> 2665.00
16:31:01:605 -> 2652.00
16:31:01:636 -> 2649.00
16:31:01:636 -> 2607.00
16:31:01:636 -> 2720.00
16:31:01:636 -> 2712.00
16:31:01:636 -> 2624.00
16:31:01:636 -> 2669.00
16:31:01:636 -> 2592.00
16:31:01:636 -> 2634.00
16:31:01:636 -> 2619.00
16:31:01:636 -> 2617.00
16:31:01:636 -> 2638.00
16:31:01:636 -> 2660.00
16:31:01:636 -> 2647.00
16:31:01:636 -> 2667.00
16:31:01:636 -> 2651.00
16:31:01:636 -> 2624.00
16:31:01:636 -> 2677.00
16:31:01:636 -> 2639.00
16:31:01:636 -> 2670.00
16:31:01:636 -> 2661.00
16:31:01:636 -> 2644.00
16:31:01:636 -> 2583.00
16:31:01:636 -> 2626.00
16:31:01:636 -> 2713.00
16:31:01:636 -> 2649.00
16:31:01:636 -> 2636.00
16:31:01:636 -> 2622.00
16:31:01:636 -> 2616.00
16:31:01:636 -> 2614.00
16:31:01:636 -> 2602.00
16:31:01:636 -> 2595.00
16:31:01:636 -> 2629.00
16:31:01:636 -> 2653.00
16:31:01:671 -> 2670.00
16:31:01:671 -> 2666.00
16:31:01:671 -> 2706.00
16:31:01:671 -> 2677.00
16:31:01:671 -> 2686.00
16:31:01:671 -> 2657.00
16:31:01:671 -> 2725.00
16:31:01:671 -> 2693.00
16:31:01:671 -> 2591.00
16:31:01:671 -> 2664.00
16:31:01:671 -> 2625.00
16:31:01:671 -> 2609.00
16:31:01:671 -> 2567.00
16:31:01:671 -> 2591.00
16:31:01:671 -> 2746.00
16:31:01:671 -> 2761.00
16:31:01:671 -> 2495.00
16:31:01:671 -> 2465.00
16:31:01:671 -> 2611.00
16:31:01:671 -> 2590.00
16:31:01:671 -> 2534.00
16:31:01:671 -> 2577.00
16:31:01:671 -> 2689.00
16:31:01:671 -> 2771.00
16:31:01:671 -> 2743.00
16:31:01:671 -> 2687.00
16:31:01:671 -> 2716.00
16:31:01:671 -> 2680.00
16:31:01:671 -> 2681.00
16:31:01:671 -> 2630.00
16:31:01:689 -> 2689.00
16:31:01:689 -> 2699.00
16:31:01:689 -> 2663.00
16:31:01:689 -> 2630.00
16:31:01:689 -> 2625.00
16:31:01:689 -> 2737.00
16:31:01:689 -> 2714.00
16:31:01:689 -> 2679.00
16:31:01:689 -> 2589.00
16:31:01:689 -> 2776.00
16:31:01:689 -> 2704.00
16:31:01:689 -> 2662.00
16:31:01:689 -> 2635.00
16:31:01:689 -> 2638.00
16:31:01:713 -> 2647.00
16:31:01:713 -> 2598.00
16:31:01:713 -> 2620.00
16:31:01:713 -> 2678.00
16:31:01:713 -> 2622.00
16:31:01:713 -> 2605.00
16:31:01:713 -> 2680.00
16:31:01:713 -> 2657.00
16:31:01:713 -> 2579.00
16:31:01:713 -> 2683.00
16:31:01:713 -> 2656.00
16:31:01:713 -> 2617.00
16:31:01:713 -> 2625.00
16:31:01:713 -> 2734.00
16:31:01:713 -> 2669.00
16:31:01:713 -> 2644.00
16:31:01:713 -> 2607.00
16:31:01:713 -> 2614.00
16:31:01:713 -> 2654.00
16:31:01:713 -> 2647.00
16:31:01:713 -> 2665.00
16:31:01:749 -> 2597.00
16:31:01:749 -> 2563.00
16:31:01:749 -> 2688.00
16:31:01:749 -> 2663.00
16:31:01:749 -> 2658.00
16:31:01:749 -> 2651.00
16:31:01:749 -> 2651.00
16:31:01:749 -> 2626.00
16:31:01:749 -> 2658.00
16:31:01:749 -> 2712.00
16:31:01:749 -> 2630.00
16:31:01:749 -> 2620.00
16:31:01:749 -> 2631.00
16:31:01:749 -> 2637.00
16:31:01:749 -> 2591.00
16:31:01:749 -> 2642.00
16:31:01:749 -> 2654.00
16:31:01:749 -> 2656.00
16:31:01:749 -> 2666.00
16:31:01:749 -> 2646.00
16:31:01:749 -> 2647.00
16:31:01:749 -> 2678.00
16:31:01:749 -> 2696.00
16:31:01:749 -> 2655.00
16:31:01:749 -> 2655.00
16:31:01:749 -> 2698.00
16:31:01:749 -> 2728.00
16:31:01:749 -> 2731.00
16:31:01:749 -> 2707.00
16:31:01:749 -> 2712.00
16:31:01:751 -> 2690.00
16:31:01:751 -> 2634.00
16:31:01:755 -> 2590.00
16:31:01:755 -> 2650.00
16:31:01:755 -> 2645.00
16:31:01:760 -> 2759.00
16:31:01:760 -> 2693.00
16:31:01:760 -> 2644.00
16:31:01:760 -> 2611.00
16:31:01:760 -> 2615.00
16:31:01:762 -> 2682.00
16:31:01:765 -> 2668.00
16:31:01:765 -> 2771.00
16:31:01:765 -> 2678.00
16:31:01:766 -> 2622.00
16:31:01:768 -> 2683.00
16:31:01:771 -> 2684.00
16:31:01:771 -> 2624.00
16:31:01:772 -> 2639.00
16:31:01:773 -> 2654.00
16:31:01:773 -> 2641.00
16:31:01:793 -> 2644.00
16:31:01:793 -> 2637.00
16:31:01:793 -> 2573.00
16:31:01:793 -> 2592.00
16:31:01:793 -> 2629.00
16:31:01:793 -> 2742.00
16:31:01:793 -> 2724.00
16:31:01:793 -> 2628.00
16:31:01:793 -> 2616.00
16:31:01:793 -> 2609.00
16:31:01:793 -> 2612.00
16:31:01:793 -> 2658.00
16:31:01:793 -> 2658.00
16:31:01:793 -> 2634.00
16:31:01:793 -> 2689.00
16:31:01:793 -> 2755.00
16:31:01:813 -> 2709.00
16:31:01:813 -> 2667.00
16:31:01:813 -> 2523.00
16:31:01:813 -> 2614.00
16:31:01:813 -> 2691.00
16:31:01:813 -> 2650.00
16:31:01:813 -> 2589.00
16:31:01:813 -> 2578.00
16:31:01:820 -> 2657.00
16:31:01:820 -> 2736.00
16:31:01:820 -> 2762.00
16:31:01:820 -> 2704.00
16:31:01:820 -> 2702.00
16:31:01:820 -> 2662.00
16:31:01:820 -> 2680.00
16:31:01:820 -> 2659.00
16:31:01:820 -> 2645.00
16:31:01:820 -> 2695.00
16:31:01:820 -> 2677.00
16:31:01:820 -> 2608.00
16:31:01:820 -> 2595.00
16:31:01:820 -> 2696.00
16:31:01:821 -> 2655.00
16:31:01:821 -> 2664.00
16:31:01:822 -> 2665.00
16:31:01:823 -> 2643.00
16:31:01:825 -> 2652.00
16:31:01:826 -> 2683.00
16:31:01:827 -> 2698.00
16:31:01:828 -> 2715.00
16:31:01:829 -> 2710.00
16:31:01:831 -> 2663.00
16:31:01:832 -> 2659.00
16:31:01:834 -> 2628.00
16:31:01:834 -> 2632.00
16:31:01:835 -> 2593.00
16:31:01:837 -> 2619.00
16:31:01:838 -> 2649.00
16:31:01:839 -> 2671.00
16:31:01:840 -> 2680.00
16:31:01:841 -> 2710.00
16:31:01:842 -> 2632.00
16:31:01:844 -> 2643.00
16:31:01:845 -> 2634.00
16:31:01:846 -> 2675.00
16:31:01:850 -> 2682.00
16:31:01:850 -> 2667.00
16:31:01:850 -> 2702.00
16:31:01:854 -> 2659.00
16:31:01:854 -> 2640.00
16:31:01:854 -> 2631.00
16:31:01:866 -> 2594.00
16:31:01:866 -> 2672.00
16:31:01:866 -> 2604.00
16:31:01:873 -> 2655.00
16:31:01:873 -> 2622.00
16:31:01:873 -> 2615.00
16:31:01:873 -> 2669.00
16:31:01:873 -> 2743.00
16:31:01:873 -> 2614.00
16:31:01:873 -> 2646.00
16:31:01:873 -> 2732.00
16:31:01:873 -> 2752.00
16:31:01:873 -> 2742.00
16:31:01:873 -> 2706.00
16:31:01:873 -> 2686.00
16:31:01:873 -> 2641.00
16:31:01:877 -> 2675.00
16:31:01:877 -> 2591.00
16:31:01:877 -> 2668.00
16:31:01:878 -> 2697.00
16:31:01:879 -> 2607.00
16:31:01:879 -> 2597.00
16:31:01:883 -> 2625.00
16:31:01:883 -> 2714.00
16:31:01:883 -> 2650.00
16:31:01:891 -> 2717.00
16:31:01:891 -> 2692.00
16:31:01:891 -> 2649.00
16:31:01:891 -> 2662.00
16:31:01:891 -> 2695.00
16:31:01:891 -> 2639.00
16:31:01:892 -> 2673.00
16:31:01:893 -> 2689.00
16:31:01:897 -> 2667.00
16:31:01:897 -> 2709.00
16:31:01:897 -> 2628.00
16:31:01:898 -> 2649.00
16:31:01:899 -> 2646.00
16:31:01:900 -> 2630.00
16:31:01:901 -> 2679.00
16:31:01:902 -> 2673.00
16:31:01:903 -> 2709.00
16:31:01:904 -> 2721.00
16:31:01:906 -> 2719.00
16:31:01:907 -> 2779.00
16:31:01:908 -> 2775.00
16:31:01:909 -> 2670.00
16:31:01:910 -> 2676.00
16:31:01:911 -> 2701.00
16:31:01:913 -> 2669.00
16:31:01:914 -> 2673.00
16:31:01:915 -> 2571.00
16:31:01:916 -> 2555.00
16:31:01:917 -> 2652.00
16:31:01:919 -> 2704.00
16:31:01:920 -> 2629.00
16:31:01:921 -> 2613.00
16:31:01:922 -> 2660.00
16:31:01:923 -> 2648.00
16:31:01:925 -> 2660.00
16:31:01:926 -> 2713.00
16:31:01:927 -> 2703.00
16:31:01:928 -> 2691.00
16:31:01:929 -> 2638.00
16:31:01:931 -> 2607.00
16:31:01:932 -> 2706.00
16:31:01:933 -> 2598.00
16:31:01:934 -> 2608.00
16:31:01:935 -> 2642.00
16:31:01:936 -> 2708.00
16:31:01:938 -> 2699.00
16:31:01:939 -> 2637.00
16:31:01:940 -> 2625.00
16:31:01:941 -> 2648.00
16:31:01:942 -> 2645.00
16:31:01:944 -> 2684.00
16:31:01:947 -> 2637.00
16:31:01:947 -> 2689.00
16:31:01:947 -> 2691.00
16:31:01:948 -> 2700.00
16:31:01:950 -> 2687.00
16:31:01:957 -> 2676.00
16:31:01:957 -> 2654.00
16:31:01:960 -> 2687.00
16:31:01:960 -> 2553.00
16:31:01:960 -> 2681.00
16:31:01:960 -> 2684.00
16:31:01:960 -> 2531.00
16:31:01:961 -> 2662.00
16:31:01:961 -> 2699.00
16:31:01:962 -> 2606.00
16:31:01:963 -> 2628.00
16:31:01:964 -> 2628.00
16:31:01:965 -> 2732.00
16:31:01:966 -> 2745.00
16:31:01:967 -> 2720.00
16:31:01:969 -> 2709.00
16:31:01:970 -> 2669.00
16:31:01:971 -> 2638.00
16:31:01:972 -> 2694.00
16:31:01:973 -> 2759.00
16:31:02:003 -> 2615.00
16:31:02:016 -> 2649.00
16:31:02:016 -> 2679.00
16:31:02:016 -> 2674.00
16:31:02:016 -> 2625.00
16:31:02:016 -> 2590.00
16:31:02:016 -> 2596.00
16:31:02:016 -> 2666.00
16:31:02:016 -> 2747.00
16:31:02:016 -> 2708.00
16:31:02:016 -> 2753.00
16:31:02:016 -> 2691.00
16:31:02:016 -> 2693.00
16:31:02:016 -> 2700.00
16:31:02:016 -> 2694.00
16:31:02:016 -> 2679.00
16:31:02:016 -> 2650.00
16:31:02:016 -> 2642.00
16:31:02:016 -> 2682.00
16:31:02:016 -> 2666.00
16:31:02:016 -> 2671.00
16:31:02:016 -> 2580.00
16:31:02:016 -> 2650.00
16:31:02:016 -> 2788.00
16:31:02:016 -> 2687.00
16:31:02:016 -> 2678.00
16:31:02:016 -> 2671.00
16:31:02:016 -> 2832.00
16:31:02:016 -> 2688.00
16:31:02:016 -> 2680.00
16:31:02:016 -> 2657.00
16:31:02:016 -> 2662.00
16:31:02:016 -> 2680.00
16:31:02:016 -> 2641.00
16:31:02:019 -> 2640.00
16:31:02:019 -> 2623.00
16:31:02:019 -> 2662.00
16:31:02:019 -> 2623.00
16:31:02:020 -> 2633.00
16:31:02:021 -> 2634.00
16:31:02:034 -> 2673.00
16:31:02:034 -> 2635.00
16:31:02:034 -> 2622.00
16:31:02:034 -> 2626.00
16:31:02:034 -> 2712.00
16:31:02:034 -> 2742.00
16:31:02:034 -> 2740.00
16:31:02:034 -> 2684.00
16:31:02:034 -> 2766.00
16:31:02:036 -> 2701.00
16:31:02:036 -> 2637.00
16:31:02:036 -> 2666.00
16:31:02:036 -> 2722.00
16:31:02:038 -> 2626.00
16:31:02:039 -> 2604.00
16:31:02:040 -> 2646.00
16:31:02:041 -> 2692.00
16:31:02:042 -> 2657.00
16:31:02:044 -> 2601.00
16:31:02:045 -> 2575.00
16:31:02:046 -> 2646.00
16:31:02:050 -> 2722.00
16:31:02:050 -> 2730.00
16:31:02:050 -> 2730.00
16:31:02:051 -> 2726.00
16:31:02:052 -> 2625.00
16:31:02:053 -> 2540.00
16:31:02:054 -> 2780.00
16:31:02:056 -> 2720.00
16:31:02:058 -> 2670.00
16:31:02:069 -> 2621.00
16:31:02:069 -> 2602.00
16:31:02:069 -> 2658.00
16:31:02:069 -> 2668.00
16:31:02:069 -> 2679.00
16:31:02:069 -> 2863.00
16:31:02:069 -> 2773.00
16:31:02:069 -> 2600.00
16:31:02:069 -> 2632.00
16:31:02:069 -> 2623.00
16:31:02:090 -> 2668.00
16:31:02:090 -> 2646.00
16:31:02:090 -> 2644.00
16:31:02:090 -> 2650.00
16:31:02:090 -> 2664.00
16:31:02:090 -> 2794.00
16:31:02:090 -> 2702.00
16:31:02:090 -> 2647.00
16:31:02:090 -> 2686.00
16:31:02:090 -> 2670.00
16:31:02:090 -> 2684.00
16:31:02:090 -> 2690.00
16:31:02:090 -> 2722.00
16:31:02:090 -> 2678.00
16:31:02:090 -> 2711.00
16:31:02:090 -> 2663.00
16:31:02:090 -> 2657.00
16:31:02:100 -> 2634.00
16:31:02:100 -> 2627.00
16:31:02:100 -> 2616.00
16:31:02:100 -> 2594.00
16:31:02:100 -> 2607.00
16:31:02:100 -> 2642.00
16:31:02:100 -> 2630.00
16:31:02:100 -> 2687.00
16:31:02:100 -> 2735.00
16:31:02:120 -> 2702.00
16:31:02:120 -> 2695.00
16:31:02:120 -> 2735.00
16:31:02:120 -> 2723.00
16:31:02:120 -> 2706.00
16:31:02:120 -> 2716.00
16:31:02:120 -> 2719.00
16:31:02:120 -> 2680.00
16:31:02:120 -> 2659.00
16:31:02:120 -> 2669.00
16:31:02:120 -> 2645.00
16:31:02:120 -> 2599.00
16:31:02:120 -> 2544.00
16:31:02:120 -> 2533.00
16:31:02:120 -> 2673.00
16:31:02:120 -> 2666.00
16:31:02:120 -> 2726.00
16:31:02:139 -> 2861.00
16:31:02:139 -> 2910.00
16:31:02:139 -> 2636.00
16:31:02:139 -> 2659.00
16:31:02:139 -> 2633.00
16:31:02:139 -> 2647.00
16:31:02:139 -> 2645.00
16:31:02:139 -> 2645.00
16:31:02:139 -> 2730.00
16:31:02:139 -> 2627.00
16:31:02:139 -> 2535.00
16:31:02:139 -> 2598.00
16:31:02:139 -> 2677.00
16:31:02:139 -> 2712.00
16:31:02:139 -> 2705.00
16:31:02:139 -> 2732.00
16:31:02:148 -> 2712.00
16:31:02:148 -> 2632.00
16:31:02:148 -> 2645.00
16:31:02:148 -> 2774.00
16:31:02:148 -> 2682.00
16:31:02:148 -> 2681.00
16:31:02:148 -> 2676.00
16:31:02:158 -> 2703.00
16:31:02:158 -> 2635.00
16:31:02:158 -> 2605.00
16:31:02:158 -> 2611.00
16:31:02:158 -> 2552.00
16:31:02:158 -> 2600.00
16:31:02:158 -> 2694.00
16:31:02:158 -> 2702.00
16:31:02:158 -> 2700.00
16:31:02:192 -> 2717.00
16:31:02:192 -> 2707.00
16:31:02:192 -> 2689.00
16:31:02:192 -> 2677.00
16:31:02:192 -> 2642.00
16:31:02:192 -> 2678.00
16:31:02:192 -> 2716.00
16:31:02:192 -> 2681.00
16:31:02:192 -> 2707.00
16:31:02:192 -> 2695.00
16:31:02:192 -> 2659.00
16:31:02:192 -> 2666.00
16:31:02:192 -> 2646.00
16:31:02:192 -> 2640.00
16:31:02:192 -> 2668.00
16:31:02:192 -> 2658.00
16:31:02:192 -> 2637.00
16:31:02:192 -> 2673.00
16:31:02:199 -> 2609.00
16:31:02:199 -> 2752.00
16:31:02:199 -> 2792.00
16:31:02:199 -> 2653.00
16:31:02:199 -> 2750.00
16:31:02:199 -> 2700.00
16:31:02:199 -> 2693.00
16:31:02:199 -> 2665.00
16:31:02:199 -> 2694.00
16:31:02:199 -> 2691.00
16:31:02:199 -> 2649.00
16:31:02:199 -> 2591.00
16:31:02:199 -> 2626.00
16:31:02:199 -> 2647.00
16:31:02:199 -> 2668.00
16:31:02:199 -> 2689.00
16:31:02:202 -> 2700.00
16:31:02:202 -> 2684.00
16:31:02:202 -> 2671.00
16:31:02:205 -> 2626.00
16:31:02:205 -> 2588.00
16:31:02:241 -> 2683.00
16:31:02:241 -> 2732.00
16:31:02:241 -> 2780.00
16:31:02:241 -> 2708.00
16:31:02:241 -> 2670.00
16:31:02:241 -> 2637.00
16:31:02:241 -> 2554.00
16:31:02:241 -> 2654.00
16:31:02:241 -> 2702.00
16:31:02:241 -> 2702.00
16:31:02:241 -> 2630.00
16:31:02:241 -> 2683.00
16:31:02:241 -> 2706.00
16:31:02:241 -> 2733.00
16:31:02:241 -> 2737.00
16:31:02:241 -> 2590.00
16:31:02:241 -> 2754.00
16:31:02:241 -> 2702.00
16:31:02:241 -> 2704.00
16:31:02:241 -> 2697.00
16:31:02:241 -> 2682.00
16:31:02:241 -> 2646.00
16:31:02:241 -> 2674.00
16:31:02:241 -> 2652.00
16:31:02:241 -> 2618.00
16:31:02:241 -> 2684.00
16:31:02:241 -> 2683.00
16:31:02:241 -> 2593.00
16:31:02:241 -> 2617.00
16:31:02:241 -> 2665.00
16:31:02:241 -> 2761.00
16:31:02:297 -> 2757.00
16:31:02:297 -> 2707.00
16:31:02:297 -> 2677.00
16:31:02:297 -> 2697.00
16:31:02:297 -> 2732.00
16:31:02:297 -> 2692.00
16:31:02:297 -> 2682.00
16:31:02:297 -> 2650.00
16:31:02:297 -> 2622.00
16:31:02:297 -> 2720.00
16:31:02:297 -> 2639.00
16:31:02:297 -> 2653.00
16:31:02:297 -> 2707.00
16:31:02:297 -> 2729.00
16:31:02:297 -> 2679.00
16:31:02:297 -> 2653.00
16:31:02:297 -> 2678.00
16:31:02:297 -> 2674.00
16:31:02:297 -> 2690.00
16:31:02:297 -> 2711.00
16:31:02:297 -> 2698.00
16:31:02:297 -> 2704.00
16:31:02:297 -> 2697.00
16:31:02:297 -> 2689.00
16:31:02:297 -> 2681.00
16:31:02:297 -> 2649.00
16:31:02:297 -> 2652.00
16:31:02:297 -> 2647.00
16:31:02:297 -> 2640.00
16:31:02:297 -> 2624.00
16:31:02:297 -> 2549.00
16:31:02:297 -> 2563.00
16:31:02:297 -> 2630.00
16:31:02:297 -> 2682.00
16:31:02:297 -> 2712.00
16:31:02:297 -> 2756.00
16:31:02:297 -> 2739.00
16:31:02:297 -> 2724.00
16:31:02:297 -> 2761.00
16:31:02:297 -> 2728.00
16:31:02:297 -> 2667.00
16:31:02:297 -> 2708.00
16:31:02:297 -> 2744.00
16:31:02:297 -> 2603.00
16:31:02:297 -> 2678.00
16:31:02:297 -> 2609.00
16:31:02:297 -> 2629.00
16:31:02:315 -> 2763.00
16:31:02:315 -> 2658.00
16:31:02:315 -> 2631.00
16:31:02:315 -> 2610.00
16:31:02:315 -> 2632.00
16:31:02:315 -> 2673.00
16:31:02:315 -> 2730.00
16:31:02:315 -> 2790.00
16:31:02:315 -> 2715.00
16:31:02:315 -> 2613.00
16:31:02:315 -> 2640.00
16:31:02:315 -> 2759.00
16:31:02:315 -> 2647.00
16:31:02:315 -> 2555.00
16:31:02:370 -> 2647.00
16:31:02:370 -> 2620.00
16:31:02:370 -> 2648.00
16:31:02:370 -> 2568.00
16:31:02:370 -> 2655.00
16:31:02:370 -> 2726.00
16:31:02:370 -> 2674.00
16:31:02:370 -> 2647.00
16:31:02:370 -> 2656.00
16:31:02:370 -> 2756.00
16:31:02:370 -> 2705.00
16:31:02:370 -> 2700.00
16:31:02:370 -> 2712.00
16:31:02:370 -> 2756.00
16:31:02:370 -> 2772.00
16:31:02:370 -> 2707.00
16:31:02:370 -> 2604.00
16:31:02:370 -> 2627.00
16:31:02:370 -> 2686.00
16:31:02:370 -> 2695.00
16:31:02:370 -> 2697.00
16:31:02:370 -> 2734.00
16:31:02:370 -> 2604.00
16:31:02:370 -> 2556.00
16:31:02:370 -> 2674.00
16:31:02:370 -> 2808.00
16:31:02:370 -> 2759.00
16:31:02:370 -> 2686.00
16:31:02:370 -> 2614.00
16:31:02:370 -> 2608.00
16:31:02:370 -> 2586.00
16:31:02:370 -> 2580.00
16:31:02:370 -> 2605.00
16:31:02:370 -> 2546.00
16:31:02:370 -> 2622.00
16:31:02:370 -> 2736.00
16:31:02:370 -> 2757.00
16:31:02:370 -> 2678.00
16:31:02:370 -> 2677.00
16:31:02:370 -> 2674.00
16:31:02:370 -> 2714.00
16:31:02:370 -> 2702.00
16:31:02:370 -> 2777.00
16:31:02:370 -> 2723.00
16:31:02:370 -> 2737.00
16:31:02:370 -> 2723.00
16:31:02:370 -> 2734.00
16:31:02:380 -> 2676.00
16:31:02:380 -> 2708.00
16:31:02:380 -> 2734.00
16:31:02:380 -> 2684.00
16:31:02:380 -> 2665.00
16:31:02:380 -> 2685.00
16:31:02:380 -> 2636.00
16:31:02:380 -> 2677.00
16:31:02:386 -> 2810.00
16:31:02:386 -> 2706.00
16:31:02:386 -> 2666.00
16:31:02:386 -> 2632.00
16:31:02:386 -> 2631.00
16:31:02:400 -> 2669.00
16:31:02:400 -> 2720.00
16:31:02:400 -> 2762.00
16:31:02:400 -> 2638.00
16:31:02:400 -> 2706.00
16:31:02:400 -> 2638.00
16:31:02:400 -> 2608.00
16:31:02:400 -> 2614.00
16:31:02:400 -> 2658.00
16:31:02:400 -> 2663.00
16:31:02:400 -> 2724.00
16:31:02:400 -> 2695.00
16:31:02:411 -> 2626.00
16:31:02:411 -> 2672.00
16:31:02:411 -> 2683.00
16:31:02:411 -> 2723.00
16:31:02:411 -> 2686.00
16:31:02:411 -> 2685.00
16:31:02:411 -> 2665.00
16:31:02:411 -> 2619.00
16:31:02:411 -> 2612.00
16:31:02:415 -> 2614.00
16:31:02:415 -> 2626.00
16:31:02:415 -> 2657.00
16:31:02:417 -> 2693.00
16:31:02:417 -> 2731.00
16:31:02:422 -> 2661.00
16:31:02:422 -> 2727.00
16:31:02:422 -> 2757.00
16:31:02:422 -> 2743.00
16:31:02:422 -> 2702.00
16:31:02:429 -> 2695.00
16:31:02:429 -> 2748.00
16:31:02:429 -> 2702.00
16:31:02:429 -> 2691.00
16:31:02:429 -> 2709.00
16:31:02:430 -> 2715.00
16:31:02:435 -> 2668.00
16:31:02:435 -> 2644.00
16:31:02:435 -> 2600.00
16:31:02:435 -> 2600.00
16:31:02:435 -> 2610.00
16:31:02:441 -> 2637.00
16:31:02:441 -> 2689.00
16:31:02:441 -> 2679.00
16:31:02:441 -> 2678.00
16:31:02:453 -> 2690.00
16:31:02:453 -> 2637.00
16:31:02:453 -> 2764.00
16:31:02:453 -> 2796.00
16:31:02:453 -> 2803.00
16:31:02:453 -> 2668.00
16:31:02:453 -> 2686.00
16:31:02:453 -> 2728.00
16:31:02:453 -> 2710.00
16:31:02:453 -> 2581.00
16:31:02:471 -> 2682.00
16:31:02:471 -> 2733.00
16:31:02:471 -> 2678.00
16:31:02:471 -> 2714.00
16:31:02:471 -> 2693.00
16:31:02:471 -> 2621.00
16:31:02:471 -> 2689.00
16:31:02:471 -> 2588.00
16:31:02:471 -> 2600.00
16:31:02:471 -> 2613.00
16:31:02:471 -> 2656.00
16:31:02:471 -> 2717.00
16:31:02:471 -> 2715.00
16:31:02:471 -> 2708.00
16:31:02:471 -> 2641.00
16:31:02:482 -> 2531.00
16:31:02:482 -> 2653.00
16:31:02:482 -> 2739.00
16:31:02:482 -> 2735.00
16:31:02:482 -> 2728.00
16:31:02:482 -> 2689.00
16:31:02:482 -> 2632.00
16:31:02:482 -> 2670.00
16:31:02:482 -> 2744.00
16:31:02:490 -> 2733.00
16:31:02:490 -> 2722.00
16:31:02:490 -> 2699.00
16:31:02:490 -> 2651.00
16:31:02:490 -> 2678.00
16:31:02:490 -> 2712.00
16:31:02:490 -> 2685.00
16:31:02:534 -> 2680.00
16:31:02:534 -> 2695.00
16:31:02:534 -> 2686.00
16:31:02:534 -> 2709.00
16:31:02:534 -> 2686.00
16:31:02:534 -> 2692.00
16:31:02:534 -> 2682.00
16:31:02:534 -> 2670.00
16:31:02:534 -> 2664.00
16:31:02:534 -> 2720.00
16:31:02:534 -> 2721.00
16:31:02:534 -> 2725.00
16:31:02:548 -> 2601.00
16:31:02:548 -> 2653.00
16:31:02:548 -> 2684.00
16:31:02:548 -> 2629.00
16:31:02:548 -> 2655.00
16:31:02:548 -> 2674.00
16:31:02:548 -> 2686.00
16:31:02:548 -> 2663.00
16:31:02:548 -> 2675.00
16:31:02:548 -> 2743.00
16:31:02:548 -> 2645.00
16:31:02:548 -> 2619.00
16:31:02:548 -> 2674.00
16:31:02:548 -> 2637.00
16:31:02:548 -> 2678.00
16:31:02:548 -> 2676.00
16:31:02:548 -> 2593.00
16:31:02:548 -> 2620.00
16:31:02:548 -> 2706.00
16:31:02:548 -> 2681.00
16:31:02:548 -> 2632.00
16:31:02:548 -> 2602.00
16:31:02:548 -> 2591.00
16:31:02:548 -> 2660.00
16:31:02:548 -> 2620.00
16:31:02:548 -> 2662.00
16:31:02:548 -> 2699.00
16:31:02:548 -> 2809.00
16:31:02:548 -> 2727.00
16:31:02:548 -> 2660.00
16:31:02:548 -> 2731.00
16:31:02:548 -> 2740.00
16:31:02:548 -> 2738.00
16:31:02:548 -> 2751.00
16:31:02:548 -> 2820.00
16:31:02:548 -> 2776.00
16:31:02:548 -> 2715.00
16:31:02:552 -> 2699.00
16:31:02:552 -> 2682.00
16:31:02:552 -> 2672.00
16:31:02:552 -> 2774.00
16:31:02:561 -> 2702.00
16:31:02:561 -> 2562.00
16:31:02:561 -> 2629.00
16:31:02:561 -> 2615.00
16:31:02:561 -> 2655.00
16:31:02:561 -> 2643.00
16:31:02:561 -> 2708.00
16:31:02:576 -> 2669.00
16:31:02:576 -> 2726.00
16:31:02:576 -> 2778.00
16:31:02:576 -> 2656.00
16:31:02:576 -> 2515.00
16:31:02:576 -> 2418.00
16:31:02:576 -> 2487.00
