16:28:57:051 -> 2172.00
16:28:57:052 -> 2209.00
16:28:57:052 -> 2186.00
16:28:57:053 -> 2179.00
16:28:57:055 -> 2182.00
16:28:57:056 -> 2157.00
16:28:57:057 -> 2124.00
16:28:57:058 -> 2186.00
16:28:57:059 -> 2222.00
16:28:57:061 -> 2177.00
16:28:57:062 -> 2117.00
16:28:57:064 -> 2095.00
16:28:57:066 -> 2146.00
16:28:57:066 -> 2121.00
16:28:57:067 -> 2194.00
16:28:57:068 -> 2224.00
16:28:57:069 -> 2225.00
16:28:57:083 -> 2203.00
16:28:57:083 -> 2183.00
16:28:57:083 -> 2194.00
16:28:57:083 -> 2190.00
16:28:57:083 -> 2196.00
16:28:57:083 -> 2162.00
16:28:57:083 -> 2181.00
16:28:57:083 -> 2208.00
16:28:57:083 -> 2162.00
16:28:57:086 -> 2127.00
16:28:57:086 -> 2170.00
16:28:57:086 -> 2208.00
16:28:57:087 -> 2189.00
16:28:57:087 -> 2180.00
16:28:57:088 -> 2142.00
16:28:57:089 -> 2186.00
16:28:57:090 -> 2172.00
16:28:57:090 -> 2182.00
16:28:57:092 -> 2182.00
16:28:57:093 -> 2200.00
16:28:57:094 -> 2151.00
16:28:57:095 -> 2142.00
16:28:57:096 -> 2154.00
16:28:57:097 -> 2133.00
16:28:57:099 -> 2121.00
16:28:57:100 -> 2139.00
16:28:57:101 -> 2151.00
16:28:57:102 -> 2179.00
16:28:57:103 -> 2130.00
16:28:57:105 -> 2099.00
16:28:57:106 -> 2140.00
16:28:57:107 -> 2169.00
16:28:57:108 -> 2158.00
16:28:57:109 -> 2172.00
16:28:57:111 -> 2184.00
16:28:57:112 -> 2108.00
16:28:57:113 -> 2090.00
16:28:57:114 -> 2166.00
16:28:57:115 -> 2177.00
16:28:57:116 -> 2110.00
16:28:57:118 -> 2056.00
16:28:57:125 -> 2136.00
16:28:57:125 -> 2076.00
16:28:57:125 -> 2106.00
16:28:57:125 -> 2174.00
16:28:57:125 -> 2164.00
16:28:57:126 -> 2134.00
16:28:57:126 -> 2180.00
16:28:57:128 -> 2173.00
16:28:57:132 -> 2142.00
16:28:57:132 -> 2191.00
16:28:57:132 -> 2207.00
16:28:57:157 -> 2162.00
16:28:57:157 -> 2104.00
16:28:57:157 -> 2077.00
16:28:57:157 -> 2054.00
16:28:57:157 -> 2096.00
16:28:57:157 -> 2194.00
16:28:57:157 -> 2171.00
16:28:57:157 -> 2163.00
16:28:57:157 -> 2118.00
16:28:57:157 -> 2146.00
16:28:57:157 -> 2145.00
16:28:57:157 -> 2145.00
16:28:57:157 -> 2079.00
16:28:57:157 -> 2121.00
16:28:57:157 -> 2185.00
16:28:57:157 -> 2184.00
16:28:57:163 -> 2103.00
16:28:57:163 -> 2223.00
16:28:57:163 -> 2250.00
16:28:57:163 -> 2185.00
16:28:57:163 -> 2213.00
16:28:57:163 -> 2245.00
16:28:57:163 -> 2228.00
16:28:57:163 -> 2240.00
16:28:57:163 -> 2234.00
16:28:57:163 -> 2227.00
16:28:57:163 -> 2190.00
16:28:57:164 -> 2226.00
16:28:57:165 -> 2229.00
16:28:57:167 -> 2195.00
16:28:57:168 -> 2215.00
16:28:57:169 -> 2184.00
16:28:57:170 -> 2208.00
16:28:57:171 -> 2201.00
16:28:57:173 -> 2259.00
16:28:57:174 -> 2197.00
16:28:57:175 -> 2184.00
16:28:57:176 -> 2155.00
16:28:57:177 -> 2115.00
16:28:57:178 -> 2076.00
16:28:57:180 -> 2131.00
16:28:57:181 -> 2123.00
16:28:57:183 -> 2090.00
16:28:57:183 -> 2032.00
16:28:57:184 -> 2014.00
16:28:57:186 -> 2016.00
16:28:57:187 -> 2006.00
16:28:57:190 -> 2073.00
16:28:57:190 -> 2057.00
16:28:57:190 -> 2101.00
16:28:57:191 -> 2121.00
16:28:57:193 -> 2036.00
16:28:57:194 -> 2135.00
16:28:57:196 -> 2136.00
16:28:57:196 -> 2119.00
16:28:57:200 -> 2158.00
16:28:57:200 -> 2205.00
16:28:57:200 -> 2262.00
16:28:57:204 -> 2112.00
16:28:57:204 -> 2153.00
16:28:57:204 -> 2189.00
16:28:57:222 -> 2154.00
16:28:57:222 -> 2153.00
16:28:57:222 -> 2201.00
16:28:57:222 -> 2132.00
16:28:57:222 -> 2062.00
16:28:57:222 -> 1999.00
16:28:57:222 -> 1985.00
16:28:57:222 -> 2099.00
16:28:57:222 -> 2053.00
16:28:57:222 -> 2068.00
16:28:57:222 -> 2010.00
16:28:57:222 -> 2108.00
16:28:57:222 -> 2161.00
16:28:57:222 -> 2129.00
16:28:57:222 -> 2166.00
16:28:57:229 -> 2183.00
16:28:57:229 -> 2119.00
16:28:57:240 -> 2082.00
16:28:57:240 -> 2141.00
16:28:57:240 -> 2213.00
16:28:57:240 -> 2270.00
16:28:57:240 -> 2248.00
16:28:57:240 -> 2296.00
16:28:57:240 -> 2263.00
16:28:57:240 -> 2223.00
16:28:57:240 -> 2253.00
16:28:57:240 -> 2196.00
16:28:57:240 -> 2218.00
16:28:57:240 -> 2167.00
16:28:57:240 -> 2118.00
16:28:57:240 -> 2082.00
16:28:57:247 -> 2022.00
16:28:57:247 -> 2061.00
16:28:57:247 -> 2126.00
16:28:57:247 -> 2164.00
16:28:57:247 -> 2228.00
16:28:57:247 -> 2226.00
16:28:57:251 -> 2253.00
16:28:57:251 -> 2251.00
16:28:57:251 -> 2238.00
16:28:57:253 -> 2171.00
16:28:57:253 -> 2200.00
16:28:57:255 -> 2155.00
16:28:57:256 -> 2143.00
16:28:57:257 -> 2158.00
16:28:57:258 -> 2220.00
16:28:57:259 -> 2226.00
16:28:57:260 -> 2202.00
16:28:57:262 -> 2168.00
16:28:57:263 -> 2041.00
16:28:57:264 -> 2009.00
16:28:57:265 -> 2086.00
16:28:57:267 -> 2037.00
16:28:57:268 -> 2015.00
16:28:57:269 -> 2077.00
16:28:57:270 -> 2111.00
16:28:57:271 -> 2039.00
16:28:57:272 -> 1951.00
16:28:57:274 -> 1991.00
16:28:57:275 -> 2062.00
16:28:57:276 -> 2071.00
16:28:57:277 -> 2155.00
16:28:57:278 -> 1986.00
16:28:57:280 -> 1878.00
16:28:57:281 -> 2241.00
16:28:57:282 -> 2394.00
16:28:57:283 -> 2354.00
16:28:57:284 -> 2299.00
16:28:57:285 -> 2226.00
16:28:57:287 -> 2236.00
16:28:57:288 -> 2159.00
16:28:57:289 -> 2161.00
16:28:57:290 -> 2165.00
16:28:57:291 -> 1955.00
16:28:57:293 -> 2018.00
16:28:57:295 -> 2161.00
16:28:57:296 -> 2185.00
16:28:57:296 -> 1967.00
16:28:57:297 -> 1902.00
16:28:57:299 -> 1866.00
16:28:57:300 -> 1856.00
16:28:57:301 -> 1799.00
16:28:57:302 -> 1694.00
16:28:57:303 -> 1874.00
16:28:57:305 -> 2102.00
16:28:57:306 -> 2133.00
16:28:57:307 -> 2022.00
16:28:57:308 -> 2096.00
16:28:57:309 -> 2291.00
16:28:57:324 -> 2318.00
16:28:57:324 -> 2362.00
16:28:57:324 -> 2340.00
16:28:57:324 -> 2268.00
16:28:57:324 -> 2367.00
16:28:57:324 -> 2330.00
16:28:57:324 -> 2181.00
16:28:57:324 -> 2169.00
16:28:57:324 -> 2340.00
16:28:57:324 -> 2216.00
16:28:57:324 -> 1986.00
16:28:57:324 -> 1755.00
16:28:57:362 -> 1848.00
16:28:57:362 -> 1935.00
16:28:57:362 -> 1743.00
16:28:57:362 -> 1736.00
16:28:57:362 -> 2050.00
16:28:57:362 -> 2241.00
16:28:57:362 -> 2014.00
16:28:57:400 -> 1756.00
16:28:57:400 -> 1755.00
16:28:57:400 -> 2004.00
16:28:57:400 -> 1920.00
16:28:57:400 -> 2140.00
16:28:57:400 -> 2140.00
16:28:57:400 -> 2087.00
16:28:57:400 -> 2419.00
16:28:57:400 -> 2763.00
16:28:57:400 -> 2525.00
16:28:57:400 -> 2221.00
16:28:57:400 -> 2308.00
16:28:57:400 -> 2409.00
16:28:57:400 -> 2418.00
16:28:57:400 -> 2407.00
16:28:57:400 -> 2179.00
16:28:57:400 -> 1898.00
16:28:57:400 -> 1638.00
16:28:57:400 -> 1641.00
16:28:57:400 -> 1673.00
16:28:57:400 -> 2113.00
16:28:57:400 -> 1799.00
16:28:57:400 -> 1894.00
16:28:57:400 -> 1927.00
16:28:57:400 -> 2391.00
16:28:57:400 -> 2873.00
16:28:57:415 -> 2610.00
16:28:57:415 -> 2238.00
16:28:57:415 -> 2297.00
16:28:57:415 -> 2426.00
16:28:57:415 -> 2460.00
16:28:57:415 -> 2382.00
16:28:57:415 -> 2064.00
16:28:57:415 -> 1954.00
16:28:57:415 -> 2054.00
16:28:57:415 -> 2157.00
16:28:57:415 -> 2149.00
16:28:57:415 -> 1676.00
16:28:57:415 -> 1427.00
16:28:57:415 -> 1936.00
16:28:57:415 -> 2164.00
16:28:57:415 -> 1860.00
16:28:57:415 -> 1943.00
16:28:57:415 -> 2485.00
16:28:57:415 -> 2475.00
16:28:57:415 -> 2410.00
16:28:57:415 -> 2526.00
16:28:57:415 -> 2596.00
16:28:57:415 -> 2365.00
16:28:57:415 -> 2306.00
16:28:57:415 -> 2094.00
16:28:57:415 -> 2173.00
16:28:57:415 -> 2118.00
16:28:57:415 -> 2090.00
16:28:57:415 -> 2093.00
16:28:57:415 -> 1999.00
16:28:57:415 -> 1812.00
16:28:57:415 -> 1853.00
16:28:57:415 -> 1890.00
16:28:57:415 -> 1983.00
16:28:57:415 -> 1779.00
16:28:57:415 -> 2374.00
16:28:57:415 -> 2018.00
16:28:57:415 -> 1508.00
16:28:57:415 -> 1889.00
16:28:57:415 -> 2444.00
16:28:57:415 -> 2607.00
16:28:57:415 -> 2070.00
16:28:57:415 -> 1917.00
16:28:57:417 -> 2208.00
16:28:57:417 -> 2207.00
16:28:57:418 -> 2532.00
16:28:57:419 -> 2361.00
16:28:57:425 -> 2462.00
16:28:57:425 -> 2158.00
16:28:57:425 -> 1927.00
16:28:57:425 -> 2168.00
16:28:57:448 -> 2377.00
16:28:57:448 -> 2099.00
16:28:57:448 -> 1890.00
16:28:57:448 -> 2180.00
16:28:57:448 -> 2147.00
16:28:57:448 -> 1807.00
16:28:57:448 -> 1891.00
16:28:57:448 -> 1912.00
16:28:57:448 -> 2008.00
16:28:57:448 -> 1839.00
16:28:57:448 -> 1709.00
16:28:57:448 -> 1917.00
16:28:57:448 -> 2376.00
16:28:57:448 -> 2601.00
16:28:57:448 -> 2326.00
16:28:57:448 -> 2242.00
16:28:57:448 -> 1842.00
16:28:57:448 -> 2116.00
16:28:57:448 -> 2086.00
16:28:57:448 -> 1959.00
16:28:57:448 -> 1747.00
16:28:57:450 -> 1887.00
16:28:57:451 -> 1716.00
16:28:57:452 -> 2351.00
16:28:57:453 -> 2739.00
16:28:57:454 -> 2034.00
16:28:57:456 -> 1706.00
16:28:57:457 -> 1756.00
16:28:57:458 -> 1761.00
16:28:57:459 -> 2170.00
16:28:57:460 -> 2588.00
16:28:57:462 -> 2082.00
16:28:57:463 -> 1705.00
16:28:57:464 -> 1685.00
16:28:57:465 -> 2456.00
16:28:57:466 -> 2339.00
16:28:57:467 -> 2362.00
16:28:57:469 -> 2425.00
16:28:57:470 -> 2539.00
16:28:57:471 -> 2315.00
16:28:57:472 -> 2127.00
16:28:57:473 -> 1662.00
16:28:57:475 -> 1898.00
16:28:57:476 -> 2055.00
16:28:57:477 -> 1915.00
16:28:57:478 -> 2052.00
16:28:57:479 -> 2348.00
16:28:57:480 -> 2136.00
16:28:57:482 -> 1767.00
16:28:57:483 -> 1712.00
16:28:57:484 -> 2115.00
16:28:57:485 -> 2374.00
16:28:57:487 -> 2393.00
16:28:57:488 -> 2225.00
16:28:57:489 -> 2198.00
16:28:57:490 -> 2481.00
16:28:57:491 -> 1936.00
16:28:57:493 -> 1861.00
16:28:57:494 -> 1732.00
16:28:57:495 -> 1582.00
16:28:57:496 -> 1613.00
16:28:57:497 -> 2181.00
16:28:57:499 -> 2347.00
16:28:57:500 -> 2189.00
16:28:57:501 -> 2015.00
16:28:57:502 -> 2199.00
16:28:57:503 -> 2205.00
16:28:57:504 -> 2034.00
16:28:57:508 -> 1894.00
16:28:57:509 -> 2457.00
16:28:57:509 -> 2532.00
16:28:57:509 -> 2190.00
16:28:57:510 -> 1739.00
16:28:57:512 -> 1703.00
16:28:57:513 -> 1523.00
16:28:57:514 -> 2142.00
16:28:57:515 -> 1832.00
16:28:57:516 -> 1759.00
16:28:57:519 -> 2507.00
16:28:57:522 -> 2487.00
16:28:57:522 -> 2406.00
16:28:57:522 -> 2399.00
16:28:57:522 -> 2030.00
16:28:57:538 -> 2061.00
16:28:57:538 -> 2191.00
16:28:57:538 -> 2463.00
16:28:57:538 -> 2131.00
16:28:57:538 -> 2017.00
16:28:57:538 -> 1991.00
16:28:57:538 -> 1747.00
16:28:57:538 -> 1942.00
16:28:57:538 -> 2073.00
16:28:57:538 -> 1993.00
16:28:57:538 -> 2146.00
16:28:57:549 -> 2073.00
16:28:57:549 -> 1734.00
16:28:57:549 -> 1868.00
16:28:57:549 -> 1776.00
16:28:57:549 -> 2026.00
16:28:57:549 -> 1952.00
16:28:57:549 -> 1835.00
16:28:57:549 -> 1748.00
16:28:57:549 -> 1248.00
16:28:57:549 -> 1755.00
16:28:57:549 -> 2427.00
16:28:57:551 -> 2506.00
16:28:57:551 -> 2878.00
16:28:57:552 -> 2662.00
16:28:57:553 -> 2095.00
16:28:57:554 -> 2438.00
16:28:57:556 -> 2285.00
16:28:57:557 -> 2146.00
16:28:57:558 -> 1954.00
16:28:57:559 -> 1753.00
16:28:57:560 -> 1617.00
16:28:57:562 -> 2058.00
16:28:57:563 -> 2081.00
16:28:57:564 -> 2236.00
16:28:57:565 -> 2383.00
16:28:57:567 -> 2007.00
16:28:57:569 -> 2053.00
16:28:57:569 -> 2081.00
16:28:57:570 -> 1992.00
16:28:57:573 -> 2054.00
16:28:57:573 -> 1846.00
16:28:57:573 -> 2080.00
16:28:57:575 -> 1833.00
16:28:57:576 -> 2472.00
16:28:57:577 -> 2401.00
16:28:57:578 -> 1874.00
16:28:57:579 -> 2006.00
16:28:57:581 -> 2415.00
16:28:57:582 -> 2033.00
16:28:57:583 -> 1678.00
16:28:57:584 -> 2360.00
16:28:57:585 -> 2653.00
16:28:57:586 -> 2293.00
16:28:57:588 -> 2019.00
16:28:57:589 -> 1996.00
16:28:57:590 -> 1961.00
16:28:57:591 -> 1921.00
16:28:57:592 -> 2116.00
16:28:57:594 -> 2470.00
16:28:57:595 -> 2188.00
16:28:57:596 -> 1516.00
16:28:57:601 -> 1466.00
16:28:57:601 -> 1566.00
16:28:57:601 -> 1478.00
16:28:57:602 -> 2199.00
16:28:57:602 -> 2703.00
16:28:57:603 -> 2464.00
16:28:57:604 -> 2356.00
16:28:57:605 -> 2229.00
16:28:57:607 -> 2057.00
16:28:57:608 -> 2153.00
16:28:57:609 -> 2098.00
16:28:57:610 -> 2090.00
16:28:57:612 -> 1983.00
16:28:57:613 -> 2109.00
16:28:57:614 -> 2144.00
16:28:57:615 -> 2180.00
16:28:57:616 -> 2258.00
16:28:57:617 -> 1972.00
16:28:57:619 -> 1941.00
16:28:57:620 -> 1973.00
16:28:57:621 -> 2231.00
16:28:57:628 -> 2283.00
16:28:57:628 -> 1869.00
16:28:57:646 -> 1781.00
16:28:57:646 -> 2051.00
16:28:57:646 -> 2014.00
16:28:57:646 -> 2006.00
16:28:57:646 -> 2018.00
16:28:57:646 -> 2219.00
16:28:57:646 -> 2119.00
16:28:57:646 -> 2350.00
16:28:57:646 -> 2138.00
16:28:57:646 -> 2299.00
16:28:57:646 -> 2621.00
16:28:57:646 -> 2211.00
16:28:57:646 -> 1968.00
16:28:57:646 -> 2012.00
16:28:57:646 -> 2057.00
16:28:57:646 -> 1886.00
16:28:57:646 -> 2120.00
16:28:57:646 -> 2353.00
16:28:57:646 -> 2199.00
16:28:57:660 -> 2351.00
16:28:57:660 -> 1923.00
16:28:57:660 -> 1694.00
16:28:57:660 -> 1873.00
16:28:57:660 -> 2019.00
16:28:57:660 -> 1782.00
16:28:57:660 -> 1909.00
16:28:57:660 -> 1810.00
16:28:57:660 -> 1613.00
16:28:57:660 -> 1240.00
16:28:57:660 -> 1967.00
16:28:57:664 -> 2493.00
16:28:57:664 -> 1990.00
16:28:57:664 -> 2454.00
16:28:57:664 -> 2816.00
16:28:57:669 -> 2564.00
16:28:57:669 -> 2143.00
16:28:57:669 -> 2583.00
16:28:57:669 -> 2458.00
16:28:57:675 -> 1938.00
16:28:57:675 -> 2112.00
16:28:57:675 -> 2230.00
16:28:57:675 -> 2135.00
16:28:57:675 -> 2167.00
16:28:57:724 -> 2213.00
16:28:57:724 -> 2103.00
16:28:57:724 -> 1900.00
16:28:57:724 -> 1931.00
16:28:57:724 -> 2050.00
16:28:57:724 -> 1928.00
16:28:57:724 -> 1820.00
16:28:57:724 -> 1904.00
16:28:57:724 -> 2116.00
16:28:57:724 -> 2266.00
16:28:57:724 -> 2081.00
16:28:57:724 -> 1808.00
16:28:57:724 -> 1945.00
16:28:57:724 -> 2280.00
16:28:57:724 -> 2385.00
16:28:57:724 -> 2117.00
16:28:57:724 -> 2000.00
16:28:57:724 -> 2022.00
16:28:57:724 -> 2029.00
16:28:57:724 -> 2059.00
16:28:57:724 -> 2038.00
16:28:57:724 -> 1714.00
16:28:57:724 -> 1878.00
16:28:57:724 -> 1822.00
16:28:57:724 -> 1907.00
16:28:57:724 -> 2533.00
16:28:57:724 -> 2476.00
16:28:57:724 -> 2136.00
16:28:57:724 -> 1984.00
16:28:57:724 -> 1990.00
16:28:57:724 -> 2286.00
16:28:57:724 -> 1992.00
16:28:57:724 -> 2107.00
16:28:57:724 -> 2619.00
16:28:57:724 -> 2200.00
16:28:57:724 -> 2167.00
16:28:57:724 -> 2141.00
16:28:57:724 -> 2065.00
16:28:57:724 -> 1865.00
16:28:57:724 -> 1908.00
16:28:57:724 -> 1992.00
16:28:57:762 -> 2290.00
16:28:57:762 -> 2352.00
16:28:57:762 -> 2389.00
16:28:57:762 -> 2141.00
16:28:57:762 -> 2102.00
16:28:57:762 -> 1997.00
16:28:57:762 -> 2222.00
16:28:57:762 -> 2265.00
16:28:57:762 -> 1986.00
16:28:57:762 -> 2086.00
16:28:57:762 -> 2174.00
16:28:57:762 -> 2097.00
16:28:57:762 -> 2128.00
16:28:57:762 -> 2237.00
16:28:57:762 -> 2086.00
16:28:57:762 -> 2037.00
16:28:57:762 -> 1982.00
16:28:57:762 -> 2101.00
16:28:57:762 -> 1794.00
16:28:57:762 -> 1543.00
16:28:57:762 -> 1780.00
16:28:57:762 -> 1993.00
16:28:57:762 -> 2205.00
16:28:57:762 -> 2488.00
16:28:57:762 -> 2300.00
16:28:57:762 -> 2436.00
16:28:57:762 -> 2163.00
16:28:57:762 -> 1981.00
16:28:57:762 -> 2152.00
16:28:57:762 -> 2311.00
16:28:57:762 -> 2268.00
16:28:57:762 -> 2100.00
16:28:57:776 -> 2064.00
16:28:57:776 -> 2124.00
16:28:57:776 -> 2121.00
16:28:57:776 -> 2001.00
16:28:57:776 -> 1923.00
16:28:57:776 -> 1420.00
16:28:57:776 -> 1603.00
16:28:57:776 -> 2404.00
16:28:57:776 -> 2512.00
16:28:57:776 -> 2383.00
16:28:57:776 -> 2360.00
16:28:57:776 -> 2268.00
16:28:57:784 -> 2276.00
16:28:57:784 -> 2254.00
16:28:57:784 -> 2226.00
16:28:57:784 -> 2197.00
16:28:57:784 -> 2047.00
16:28:57:784 -> 1927.00
16:28:57:829 -> 1892.00
16:28:57:829 -> 2152.00
16:28:57:829 -> 1973.00
16:28:57:829 -> 1838.00
16:28:57:829 -> 2245.00
16:28:57:829 -> 2540.00
16:28:57:829 -> 2415.00
16:28:57:829 -> 2285.00
16:28:57:829 -> 1979.00
16:28:57:829 -> 1964.00
16:28:57:829 -> 1866.00
16:28:57:829 -> 2117.00
16:28:57:829 -> 2534.00
16:28:57:829 -> 2085.00
16:28:57:829 -> 1686.00
16:28:57:829 -> 1575.00
16:28:57:829 -> 1618.00
16:28:57:829 -> 1906.00
16:28:57:829 -> 2466.00
16:28:57:829 -> 2491.00
16:28:57:829 -> 2590.00
16:28:57:829 -> 2403.00
16:28:57:829 -> 2291.00
16:28:57:832 -> 2242.00
16:28:57:832 -> 2342.00
16:28:57:832 -> 2423.00
16:28:57:832 -> 2401.00
16:28:57:832 -> 1948.00
16:28:57:832 -> 1737.00
16:28:57:832 -> 1663.00
16:28:57:832 -> 2043.00
16:28:57:832 -> 1841.00
16:28:57:832 -> 1906.00
16:28:57:832 -> 1924.00
16:28:57:832 -> 2118.00
16:28:57:832 -> 2593.00
16:28:57:832 -> 2480.00
16:28:57:832 -> 2042.00
16:28:57:832 -> 1927.00
16:28:57:832 -> 1923.00
16:28:57:832 -> 2361.00
16:28:57:833 -> 2733.00
16:28:57:834 -> 2153.00
16:28:57:835 -> 2184.00
16:28:57:836 -> 1999.00
16:28:57:846 -> 2003.00
16:28:57:846 -> 2148.00
16:28:57:846 -> 2152.00
16:28:57:846 -> 1981.00
16:28:57:846 -> 1881.00
16:28:57:846 -> 2049.00
16:28:57:846 -> 2083.00
16:28:57:846 -> 1767.00
16:28:57:848 -> 1729.00
16:28:57:849 -> 1798.00
16:28:57:896 -> 2018.00
16:28:57:896 -> 2005.00
16:28:57:896 -> 2243.00
16:28:57:896 -> 2448.00
16:28:57:896 -> 2264.00
16:28:57:896 -> 2318.00
16:28:57:896 -> 2247.00
16:28:57:896 -> 2304.00
16:28:57:896 -> 2354.00
16:28:57:896 -> 2287.00
16:28:57:896 -> 2088.00
16:28:57:896 -> 2041.00
16:28:57:896 -> 1951.00
16:28:57:896 -> 2035.00
16:28:57:896 -> 2070.00
16:28:57:896 -> 2181.00
16:28:57:922 -> 2394.00
16:28:57:922 -> 1931.00
16:28:57:922 -> 1818.00
16:28:57:922 -> 2119.00
16:28:57:922 -> 2095.00
16:28:57:922 -> 2063.00
16:28:57:922 -> 2312.00
16:28:57:922 -> 2415.00
16:28:57:922 -> 2170.00
16:28:57:922 -> 2184.00
16:28:57:922 -> 2369.00
16:28:57:922 -> 2309.00
16:28:57:922 -> 2255.00
16:28:57:922 -> 2042.00
16:28:57:922 -> 1933.00
16:28:57:922 -> 1788.00
16:28:57:922 -> 1885.00
16:28:57:922 -> 2198.00
16:28:57:922 -> 2142.00
16:28:57:922 -> 2046.00
16:28:57:922 -> 2079.00
16:28:57:922 -> 2148.00
16:28:57:922 -> 2377.00
16:28:57:922 -> 2374.00
16:28:57:922 -> 1971.00
16:28:57:922 -> 1985.00
16:28:57:922 -> 1965.00
16:28:57:922 -> 2163.00
16:28:57:922 -> 2231.00
16:28:57:922 -> 2332.00
16:28:57:922 -> 2282.00
16:28:57:922 -> 2305.00
16:28:57:922 -> 2154.00
16:28:57:922 -> 2082.00
16:28:57:922 -> 1973.00
16:28:57:922 -> 1910.00
16:28:57:922 -> 1892.00
16:28:57:922 -> 1727.00
16:28:57:922 -> 1746.00
16:28:57:922 -> 2155.00
16:28:57:922 -> 2690.00
16:28:57:922 -> 2493.00
16:28:57:922 -> 1959.00
16:28:57:922 -> 1798.00
16:28:57:922 -> 2339.00
16:28:57:947 -> 2187.00
16:28:57:947 -> 2012.00
16:28:57:947 -> 2247.00
16:28:57:947 -> 2342.00
16:28:57:947 -> 2087.00
16:28:57:947 -> 1925.00
16:28:57:947 -> 1864.00
16:28:57:947 -> 2125.00
16:28:57:947 -> 2303.00
16:28:57:947 -> 2272.00
16:28:57:947 -> 2229.00
16:28:57:947 -> 2355.00
16:28:57:947 -> 2295.00
16:28:57:947 -> 2226.00
16:28:57:947 -> 2100.00
16:28:57:947 -> 2100.00
16:28:57:947 -> 2054.00
16:28:57:947 -> 1929.00
16:28:57:947 -> 1918.00
16:28:57:947 -> 2252.00
16:28:57:947 -> 2176.00
16:28:57:952 -> 2306.00
16:28:57:952 -> 2431.00
16:28:57:952 -> 2015.00
16:28:57:952 -> 1997.00
16:28:57:952 -> 1916.00
16:28:57:953 -> 1952.00
16:28:57:954 -> 1850.00
16:28:57:962 -> 2092.00
16:28:57:962 -> 2125.00
16:28:57:962 -> 2244.00
16:28:57:962 -> 2192.00
16:28:57:962 -> 2108.00
16:28:57:965 -> 2114.00
16:28:57:965 -> 2181.00
16:28:57:965 -> 2479.00
16:28:57:965 -> 2516.00
16:28:57:966 -> 2254.00
16:28:57:967 -> 1975.00
16:28:57:968 -> 1957.00
16:28:57:969 -> 1884.00
16:28:57:971 -> 2045.00
16:28:57:973 -> 2013.00
16:28:57:973 -> 2090.00
16:28:57:976 -> 2356.00
16:28:57:976 -> 2340.00
16:28:57:977 -> 2254.00
16:28:57:978 -> 2248.00
16:28:57:979 -> 1979.00
16:28:57:980 -> 2077.00
16:28:57:981 -> 1890.00
16:28:57:983 -> 1942.00
16:28:57:984 -> 1699.00
16:28:57:985 -> 2251.00
16:28:57:986 -> 2758.00
16:28:57:987 -> 2248.00
16:28:57:990 -> 2138.00
16:28:57:990 -> 1829.00
16:28:57:995 -> 2154.00
16:28:57:995 -> 2137.00
16:28:57:995 -> 2246.00
16:28:57:995 -> 2500.00
16:28:57:997 -> 2217.00
16:28:57:997 -> 1964.00
16:28:58:009 -> 1799.00
16:28:58:009 -> 2033.00
16:28:58:009 -> 2275.00
16:28:58:009 -> 2290.00
16:28:58:009 -> 2194.00
16:28:58:009 -> 2120.00
16:28:58:009 -> 2066.00
16:28:58:009 -> 2467.00
16:28:58:009 -> 2126.00
16:28:58:009 -> 2118.00
16:28:58:011 -> 2187.00
16:28:58:018 -> 2199.00
16:28:58:018 -> 1799.00
16:28:58:018 -> 2089.00
16:28:58:018 -> 2388.00
16:28:58:018 -> 2181.00
16:28:58:018 -> 2038.00
16:28:58:019 -> 2449.00
16:28:58:019 -> 2308.00
16:28:58:021 -> 2162.00
16:28:58:027 -> 1977.00
16:28:58:027 -> 1930.00
16:28:58:027 -> 2200.00
16:28:58:027 -> 1989.00
16:28:58:027 -> 1671.00
16:28:58:028 -> 1959.00
16:28:58:038 -> 1691.00
16:28:58:038 -> 1837.00
16:28:58:038 -> 2253.00
16:28:58:038 -> 2898.00
16:28:58:038 -> 2770.00
16:28:58:038 -> 2253.00
16:28:58:038 -> 1959.00
16:28:58:044 -> 2041.00
16:28:58:044 -> 2370.00
16:28:58:044 -> 2392.00
16:28:58:044 -> 2169.00
16:28:58:044 -> 2075.00
16:28:58:044 -> 2356.00
16:28:58:052 -> 2213.00
16:28:58:052 -> 2077.00
16:28:58:052 -> 2152.00
16:28:58:052 -> 2123.00
16:28:58:052 -> 2402.00
16:28:58:052 -> 2144.00
16:28:58:052 -> 2125.00
16:28:58:055 -> 2236.00
16:28:58:055 -> 2220.00
16:28:58:056 -> 2153.00
16:28:58:057 -> 2102.00
16:28:58:058 -> 2091.00
16:28:58:059 -> 2291.00
16:28:58:060 -> 2035.00
16:28:58:061 -> 1958.00
16:28:58:062 -> 2132.00
16:28:58:063 -> 2296.00
16:28:58:065 -> 2056.00
16:28:58:066 -> 2058.00
16:28:58:067 -> 2234.00
16:28:58:069 -> 2154.00
16:28:58:071 -> 2109.00
16:28:58:078 -> 2021.00
16:28:58:078 -> 1939.00
16:28:58:078 -> 1804.00
16:28:58:078 -> 2091.00
16:28:58:078 -> 2076.00
16:28:58:078 -> 2128.00
16:28:58:078 -> 2237.00
16:28:58:080 -> 2151.00
16:28:58:085 -> 2176.00
16:28:58:085 -> 2573.00
16:28:58:085 -> 2284.00
16:28:58:085 -> 2017.00
16:28:58:085 -> 2143.00
16:28:58:087 -> 2262.00
16:28:58:088 -> 2253.00
16:28:58:088 -> 2512.00
16:28:58:090 -> 2202.00
16:28:58:091 -> 2228.00
16:28:58:092 -> 2077.00
16:28:58:093 -> 1743.00
16:28:58:099 -> 1606.00
16:28:58:099 -> 2316.00
16:28:58:099 -> 2608.00
16:28:58:099 -> 2157.00
16:28:58:113 -> 1852.00
16:28:58:113 -> 2175.00
16:28:58:113 -> 2095.00
16:28:58:113 -> 2325.00
16:28:58:113 -> 2329.00
16:28:58:113 -> 2007.00
16:28:58:113 -> 1942.00
16:28:58:113 -> 1950.00
16:28:58:113 -> 1574.00
16:28:58:113 -> 2305.00
16:28:58:113 -> 2738.00
16:28:58:113 -> 2406.00
16:28:58:114 -> 2261.00
16:28:58:127 -> 2393.00
16:28:58:127 -> 2340.00
16:28:58:127 -> 2146.00
16:28:58:127 -> 2541.00
16:28:58:127 -> 2298.00
16:28:58:127 -> 2014.00
16:28:58:127 -> 2101.00
16:28:58:127 -> 2218.00
16:28:58:127 -> 2212.00
16:28:58:127 -> 2062.00
16:28:58:127 -> 1983.00
16:28:58:129 -> 2249.00
16:28:58:131 -> 1926.00
16:28:58:131 -> 2063.00
16:28:58:131 -> 1912.00
16:28:58:132 -> 1849.00
16:28:58:134 -> 2486.00
16:28:58:135 -> 2865.00
16:28:58:137 -> 2587.00
16:28:58:137 -> 2084.00
16:28:58:139 -> 2035.00
16:28:58:146 -> 2033.00
16:28:58:153 -> 1845.00
16:28:58:153 -> 2096.00
16:28:58:153 -> 2267.00
16:28:58:153 -> 2166.00
16:28:58:153 -> 2046.00
16:28:58:153 -> 2108.00
16:28:58:153 -> 1936.00
16:28:58:155 -> 2108.00
16:28:58:155 -> 2561.00
16:28:58:155 -> 2228.00
16:28:58:155 -> 1883.00
16:28:58:156 -> 2065.00
16:28:58:156 -> 2466.00
16:28:58:156 -> 2356.00
16:28:58:157 -> 2659.00
16:28:58:159 -> 2413.00
16:28:58:160 -> 2051.00
16:28:58:162 -> 2037.00
16:28:58:163 -> 2079.00
16:28:58:163 -> 2063.00
16:28:58:165 -> 1977.00
16:28:58:166 -> 2375.00
16:28:58:167 -> 2558.00
16:28:58:168 -> 2193.00
16:28:58:169 -> 2276.00
16:28:58:171 -> 2279.00
16:28:58:172 -> 2163.00
16:28:58:173 -> 2310.00
16:28:58:174 -> 2038.00
16:28:58:176 -> 1942.00
16:28:58:175 -> 2065.00
16:28:58:179 -> 1709.00
16:28:58:180 -> 2060.00
16:28:58:181 -> 1904.00
16:28:58:182 -> 2417.00
16:28:58:184 -> 2852.00
16:28:58:178 -> 1732.00
16:28:58:185 -> 2417.00
16:28:58:186 -> 2107.00
16:28:58:187 -> 1939.00
16:28:58:188 -> 2355.00
16:28:58:189 -> 2096.00
16:28:58:191 -> 1852.00
16:28:58:192 -> 1888.00
16:28:58:193 -> 1990.00
16:28:58:195 -> 2041.00
16:28:58:196 -> 2347.00
16:28:58:197 -> 2121.00
16:28:58:198 -> 2542.00
16:28:58:199 -> 2774.00
16:28:58:201 -> 2275.00
16:28:58:205 -> 2141.00
16:28:58:205 -> 2090.00
16:28:58:205 -> 2181.00
16:28:58:207 -> 1923.00
16:28:58:207 -> 1880.00
16:28:58:212 -> 2405.00
16:28:58:212 -> 2638.00
16:28:58:212 -> 2122.00
16:28:58:212 -> 2309.00
16:28:58:226 -> 2108.00
16:28:58:226 -> 2178.00
16:28:58:226 -> 2087.00
16:28:58:226 -> 1877.00
16:28:58:226 -> 1765.00
16:28:58:226 -> 2060.00
16:28:58:226 -> 2164.00
16:28:58:226 -> 2552.00
16:28:58:226 -> 2722.00
16:28:58:226 -> 2318.00
16:28:58:226 -> 2207.00
16:28:58:226 -> 2278.00
16:28:58:226 -> 2040.00
16:28:58:274 -> 2099.00
16:28:58:274 -> 2271.00
16:28:58:274 -> 2580.00
16:28:58:274 -> 2402.00
16:28:58:274 -> 1832.00
16:28:58:274 -> 1906.00
16:28:58:274 -> 2080.00
16:28:58:274 -> 2127.00
16:28:58:274 -> 2146.00
16:28:58:274 -> 2411.00
16:28:58:274 -> 2612.00
16:28:58:274 -> 2392.00
16:28:58:274 -> 2296.00
16:28:58:274 -> 1924.00
16:28:58:274 -> 2027.00
16:28:58:274 -> 2144.00
16:28:58:274 -> 2389.00
16:28:58:274 -> 2266.00
16:28:58:274 -> 2145.00
16:28:58:274 -> 2098.00
16:28:58:274 -> 2123.00
16:28:58:274 -> 1899.00
16:28:58:283 -> 1939.00
16:28:58:283 -> 1862.00
16:28:58:283 -> 1777.00
16:28:58:283 -> 1746.00
16:28:58:283 -> 1751.00
16:28:58:283 -> 2452.00
16:28:58:283 -> 2842.00
16:28:58:283 -> 2488.00
16:28:58:283 -> 2251.00
16:28:58:283 -> 2221.00
16:28:58:283 -> 2341.00
16:28:58:283 -> 2375.00
16:28:58:283 -> 2349.00
16:28:58:283 -> 1980.00
16:28:58:283 -> 2012.00
16:28:58:283 -> 2103.00
16:28:58:283 -> 1996.00
16:28:58:283 -> 1799.00
16:28:58:283 -> 1801.00
16:28:58:292 -> 2058.00
16:28:58:292 -> 2465.00
16:28:58:292 -> 2143.00
16:28:58:292 -> 2349.00
16:28:58:292 -> 2358.00
16:28:58:292 -> 2265.00
16:28:58:292 -> 2321.00
16:28:58:292 -> 2297.00
16:28:58:292 -> 2293.00
16:28:58:292 -> 2220.00
16:28:58:295 -> 2029.00
16:28:58:295 -> 2071.00
16:28:58:295 -> 2179.00
16:28:58:295 -> 2247.00
16:28:58:295 -> 2252.00
16:28:58:295 -> 2058.00
16:28:58:303 -> 1907.00
16:28:58:303 -> 2226.00
16:28:58:303 -> 1984.00
16:28:58:303 -> 1910.00
16:28:58:303 -> 1901.00
16:28:58:303 -> 2112.00
16:28:58:303 -> 2302.00
16:28:58:328 -> 2528.00
16:28:58:328 -> 2504.00
16:28:58:328 -> 2331.00
16:28:58:328 -> 2214.00
16:28:58:328 -> 2109.00
16:28:58:328 -> 2093.00
16:28:58:328 -> 2194.00
16:28:58:328 -> 2276.00
16:28:58:328 -> 2258.00
16:28:58:328 -> 2050.00
16:28:58:340 -> 1742.00
16:28:58:340 -> 1706.00
16:28:58:340 -> 2172.00
16:28:58:340 -> 2010.00
16:28:58:340 -> 1898.00
16:28:58:340 -> 2403.00
16:28:58:340 -> 2276.00
16:28:58:340 -> 2669.00
16:28:58:340 -> 2530.00
16:28:58:340 -> 2387.00
16:28:58:340 -> 2212.00
16:28:58:340 -> 2178.00
16:28:58:340 -> 2232.00
16:28:58:340 -> 2356.00
16:28:58:340 -> 2207.00
16:28:58:340 -> 2177.00
16:28:58:340 -> 2192.00
16:28:58:340 -> 2200.00
16:28:58:340 -> 2094.00
16:28:58:340 -> 2101.00
16:28:58:340 -> 2067.00
16:28:58:362 -> 2091.00
16:28:58:362 -> 1894.00
16:28:58:362 -> 1797.00
16:28:58:362 -> 1824.00
16:28:58:362 -> 2154.00
16:28:58:362 -> 2442.00
16:28:58:362 -> 2583.00
16:28:58:362 -> 2250.00
16:28:58:362 -> 2220.00
16:28:58:362 -> 2164.00
16:28:58:362 -> 2246.00
16:28:58:362 -> 2307.00
16:28:58:362 -> 2094.00
16:28:58:362 -> 1958.00
16:28:58:362 -> 1866.00
16:28:58:362 -> 2111.00
16:28:58:362 -> 2027.00
16:28:58:362 -> 1874.00
16:28:58:362 -> 2092.00
16:28:58:377 -> 1825.00
16:28:58:377 -> 1933.00
16:28:58:377 -> 2439.00
16:28:58:377 -> 2938.00
16:28:58:377 -> 2710.00
16:28:58:377 -> 2337.00
16:28:58:377 -> 2241.00
16:28:58:377 -> 2387.00
16:28:58:377 -> 2389.00
16:28:58:377 -> 1947.00
16:28:58:377 -> 1996.00
16:28:58:377 -> 2000.00
16:28:58:391 -> 1974.00
16:28:58:391 -> 2271.00
16:28:58:391 -> 2158.00
16:28:58:391 -> 2405.00
16:28:58:391 -> 2327.00
16:28:58:391 -> 2391.00
16:28:58:391 -> 2251.00
16:28:58:391 -> 2097.00
16:28:58:391 -> 2074.00
16:28:58:391 -> 2231.00
16:28:58:391 -> 2350.00
16:28:58:391 -> 2178.00
16:28:58:428 -> 2144.00
16:28:58:428 -> 1920.00
16:28:58:428 -> 1734.00
16:28:58:428 -> 1870.00
16:28:58:428 -> 2400.00
16:28:58:428 -> 2373.00
16:28:58:463 -> 2153.00
16:28:58:463 -> 2019.00
16:28:58:463 -> 2329.00
16:28:58:463 -> 2491.00
16:28:58:463 -> 2100.00
16:28:58:463 -> 1974.00
16:28:58:463 -> 2152.00
16:28:58:463 -> 2105.00
16:28:58:463 -> 2228.00
16:28:58:463 -> 2560.00
16:28:58:463 -> 2477.00
16:28:58:463 -> 2233.00
16:28:58:463 -> 2073.00
16:28:58:463 -> 2071.00
16:28:58:463 -> 2199.00
16:28:58:463 -> 2186.00
16:28:58:463 -> 2129.00
16:28:58:463 -> 2163.00
16:28:58:463 -> 2098.00
16:28:58:463 -> 2029.00
16:28:58:463 -> 2401.00
16:28:58:463 -> 2304.00
16:28:58:463 -> 2169.00
16:28:58:463 -> 2175.00
16:28:58:463 -> 2322.00
16:28:58:463 -> 2051.00
16:28:58:463 -> 1981.00
16:28:58:463 -> 2164.00
16:28:58:463 -> 2126.00
16:28:58:463 -> 2015.00
16:28:58:463 -> 2197.00
16:28:58:463 -> 2314.00
16:28:58:463 -> 2259.00
16:28:58:463 -> 2275.00
16:28:58:463 -> 2223.00
16:28:58:463 -> 2037.00
16:28:58:463 -> 1928.00
16:28:58:463 -> 2176.00
16:28:58:463 -> 2075.00
16:28:58:463 -> 2627.00
16:28:58:463 -> 2708.00
16:28:58:463 -> 2533.00
16:28:58:463 -> 2250.00
16:28:58:463 -> 2287.00
16:28:58:486 -> 2264.00
16:28:58:486 -> 2106.00
16:28:58:486 -> 1965.00
16:28:58:486 -> 1849.00
16:28:58:486 -> 2145.00
16:28:58:486 -> 2364.00
16:28:58:486 -> 2141.00
16:28:58:486 -> 2270.00
16:28:58:486 -> 2275.00
16:28:58:486 -> 2211.00
16:28:58:486 -> 2261.00
16:28:58:486 -> 2337.00
16:28:58:486 -> 2252.00
16:28:58:486 -> 1948.00
16:28:58:486 -> 2113.00
16:28:58:486 -> 2287.00
16:28:58:486 -> 2342.00
16:28:58:486 -> 2336.00
16:28:58:486 -> 2249.00
16:28:58:486 -> 2185.00
16:28:58:486 -> 2085.00
16:28:58:486 -> 1982.00
16:28:58:486 -> 1959.00
16:28:58:486 -> 1888.00
16:28:58:486 -> 2190.00
16:28:58:486 -> 2235.00
16:28:58:486 -> 2426.00
16:28:58:486 -> 2314.00
16:28:58:486 -> 2429.00
16:28:58:486 -> 2508.00
16:28:58:508 -> 2149.00
16:28:58:508 -> 1894.00
16:28:58:508 -> 2026.00
16:28:58:508 -> 1915.00
16:28:58:508 -> 2041.00
16:28:58:508 -> 2362.00
16:28:58:508 -> 2585.00
16:28:58:508 -> 2229.00
16:28:58:508 -> 2122.00
16:28:58:508 -> 1965.00
16:28:58:508 -> 1988.00
16:28:58:508 -> 2172.00
16:28:58:508 -> 2537.00
16:28:58:508 -> 2761.00
16:28:58:508 -> 2456.00
16:28:58:508 -> 2296.00
16:28:58:508 -> 2248.00
16:28:58:508 -> 2103.00
16:28:58:513 -> 1971.00
16:28:58:513 -> 2097.00
16:28:58:513 -> 2242.00
16:28:58:513 -> 2185.00
16:28:58:523 -> 2125.00
16:28:58:523 -> 2223.00
16:28:58:523 -> 2471.00
16:28:58:523 -> 2672.00
16:28:58:523 -> 2460.00
16:28:58:523 -> 2381.00
16:28:58:523 -> 2023.00
16:28:58:523 -> 2021.00
16:28:58:523 -> 1891.00
16:28:58:529 -> 1847.00
16:28:58:529 -> 2054.00
16:28:58:529 -> 2564.00
16:28:58:529 -> 2464.00
16:28:58:529 -> 2294.00
16:28:58:534 -> 2253.00
16:28:58:534 -> 2142.00
16:28:58:534 -> 2018.00
16:28:58:534 -> 2010.00
16:28:58:542 -> 1728.00
16:28:58:542 -> 2309.00
16:28:58:542 -> 2906.00
16:28:58:542 -> 2530.00
16:28:58:542 -> 2421.00
16:28:58:542 -> 2414.00
16:28:58:542 -> 2081.00
16:28:58:564 -> 2411.00
16:28:58:564 -> 2521.00
16:28:58:564 -> 1804.00
16:28:58:564 -> 1689.00
16:28:58:566 -> 2314.00
16:28:58:566 -> 2416.00
16:28:58:566 -> 2336.00
16:28:58:566 -> 1908.00
16:28:58:566 -> 2157.00
16:28:58:566 -> 2327.00
16:28:58:566 -> 2398.00
16:28:58:566 -> 2388.00
16:28:58:566 -> 2340.00
16:28:58:566 -> 2072.00
16:28:58:566 -> 2148.00
16:28:58:566 -> 2156.00
16:28:58:566 -> 2092.00
16:28:58:566 -> 2260.00
16:28:58:566 -> 2288.00
16:28:58:566 -> 2266.00
16:28:58:578 -> 2294.00
16:28:58:578 -> 2087.00
16:28:58:578 -> 2073.00
16:28:58:578 -> 1983.00
16:28:58:578 -> 1389.00
16:28:58:578 -> 1511.00
16:28:58:578 -> 2795.00
16:28:58:578 -> 2858.00
16:28:58:578 -> 2551.00
16:28:58:600 -> 2420.00
16:28:58:600 -> 2408.00
16:28:58:600 -> 2487.00
16:28:58:600 -> 2261.00
16:28:58:600 -> 2225.00
16:28:58:600 -> 2302.00
16:28:58:600 -> 2376.00
16:28:58:600 -> 2173.00
16:28:58:600 -> 2224.00
16:28:58:600 -> 2042.00
16:28:58:600 -> 2172.00
16:28:58:600 -> 2547.00
16:28:58:600 -> 2500.00
16:28:58:600 -> 1737.00
16:28:58:600 -> 1941.00
16:28:58:600 -> 2224.00
16:28:58:600 -> 2081.00
16:28:58:600 -> 2592.00
16:28:58:600 -> 2725.00
16:28:58:600 -> 2467.00
16:28:58:609 -> 2348.00
16:28:58:609 -> 2358.00
16:28:58:609 -> 2326.00
16:28:58:609 -> 2212.00
16:28:58:609 -> 2296.00
16:28:58:609 -> 2200.00
16:28:58:609 -> 2062.00
16:28:58:626 -> 1831.00
16:28:58:626 -> 2201.00
16:28:58:626 -> 2374.00
16:28:58:626 -> 2231.00
16:28:58:626 -> 2192.00
16:28:58:626 -> 2592.00
16:28:58:626 -> 2595.00
16:28:58:626 -> 2280.00
16:28:58:626 -> 2231.00
16:28:58:626 -> 2331.00
16:28:58:626 -> 2266.00
16:28:58:626 -> 2418.00
16:28:58:626 -> 2195.00
16:28:58:626 -> 2069.00
16:28:58:630 -> 2230.00
16:28:58:630 -> 2076.00
16:28:58:630 -> 1858.00
16:28:58:630 -> 2083.00
16:28:58:642 -> 2138.00
16:28:58:642 -> 2005.00
16:28:58:642 -> 2142.00
16:28:58:642 -> 2160.00
16:28:58:642 -> 2415.00
16:28:58:642 -> 2705.00
16:28:58:642 -> 2422.00
16:28:58:642 -> 2376.00
16:28:58:642 -> 2255.00
16:28:58:642 -> 2208.00
16:28:58:653 -> 2466.00
16:28:58:653 -> 2127.00
16:28:58:653 -> 2152.00
16:28:58:653 -> 2049.00
16:28:58:653 -> 1989.00
16:28:58:653 -> 2098.00
16:28:58:653 -> 1882.00
16:28:58:653 -> 2284.00
16:28:58:653 -> 2227.00
16:28:58:659 -> 2075.00
16:28:58:659 -> 2276.00
16:28:58:659 -> 2589.00
16:28:58:659 -> 2404.00
16:28:58:659 -> 2563.00
16:28:58:660 -> 2156.00
16:28:58:664 -> 2039.00
16:28:58:664 -> 2460.00
16:28:58:664 -> 2744.00
16:28:58:664 -> 2581.00
16:28:58:674 -> 2309.00
16:28:58:674 -> 2369.00
16:28:58:674 -> 2241.00
16:28:58:674 -> 2256.00
16:28:58:674 -> 1933.00
16:28:58:674 -> 2066.00
16:28:58:674 -> 2289.00
16:28:58:674 -> 2556.00
16:28:58:677 -> 2662.00
16:28:58:677 -> 2307.00
16:28:58:686 -> 2064.00
16:28:58:686 -> 2431.00
16:28:58:686 -> 2469.00
16:28:58:686 -> 2337.00
16:28:58:686 -> 2258.00
16:28:58:686 -> 2084.00
16:28:58:686 -> 1923.00
16:28:58:686 -> 2385.00
16:28:58:704 -> 2383.00
16:28:58:704 -> 2414.00
16:28:58:704 -> 2213.00
16:28:58:704 -> 2105.00
16:28:58:704 -> 2164.00
16:28:58:704 -> 2337.00
16:28:58:704 -> 2187.00
16:28:58:704 -> 1885.00
16:28:58:704 -> 1941.00
16:28:58:704 -> 2109.00
16:28:58:704 -> 2533.00
16:28:58:704 -> 2669.00
16:28:58:704 -> 2386.00
16:28:58:704 -> 2271.00
16:28:58:706 -> 2528.00
16:28:58:706 -> 2391.00
16:28:58:706 -> 2410.00
16:28:58:708 -> 2354.00
16:28:58:744 -> 2353.00
16:28:58:744 -> 2182.00
16:28:58:744 -> 2063.00
16:28:58:744 -> 2139.00
16:28:58:744 -> 2245.00
16:28:58:744 -> 2484.00
16:28:58:744 -> 2390.00
16:28:58:744 -> 2350.00
16:28:58:744 -> 2315.00
16:28:58:744 -> 2266.00
16:28:58:744 -> 2242.00
16:28:58:744 -> 1886.00
16:28:58:744 -> 1941.00
16:28:58:744 -> 2323.00
16:28:58:744 -> 2443.00
16:28:58:744 -> 2481.00
16:28:58:744 -> 2280.00
16:28:58:744 -> 2528.00
16:28:58:744 -> 2383.00
16:28:58:744 -> 2314.00
16:28:58:744 -> 2217.00
16:28:58:744 -> 2413.00
16:28:58:744 -> 2362.00
16:28:58:744 -> 2242.00
16:28:58:744 -> 2294.00
16:28:58:744 -> 2474.00
16:28:58:744 -> 2328.00
16:28:58:744 -> 2092.00
16:28:58:744 -> 2119.00
16:28:58:744 -> 2022.00
16:28:58:744 -> 1911.00
16:28:58:790 -> 1883.00
16:28:58:790 -> 2093.00
16:28:58:790 -> 2521.00
16:28:58:790 -> 2666.00
16:28:58:790 -> 2512.00
16:28:58:790 -> 2618.00
16:28:58:790 -> 2223.00
16:28:58:790 -> 2401.00
16:28:58:790 -> 2765.00
16:28:58:790 -> 2740.00
16:28:58:790 -> 2521.00
16:28:58:790 -> 2217.00
16:28:58:790 -> 2094.00
16:28:58:790 -> 2072.00
16:28:58:790 -> 2059.00
16:28:58:790 -> 2103.00
16:28:58:790 -> 2250.00
16:28:58:790 -> 2145.00
16:28:58:790 -> 2170.00
16:28:58:790 -> 2396.00
16:28:58:790 -> 2596.00
16:28:58:790 -> 2608.00
16:28:58:790 -> 2515.00
16:28:58:790 -> 2450.00
16:28:58:790 -> 2397.00
16:28:58:790 -> 2508.00
16:28:58:790 -> 2330.00
16:28:58:790 -> 2273.00
16:28:58:790 -> 2203.00
16:28:58:790 -> 2227.00
16:28:58:790 -> 2280.00
16:28:58:790 -> 2198.00
16:28:58:790 -> 1916.00
16:28:58:790 -> 2143.00
16:28:58:790 -> 2470.00
16:28:58:790 -> 2570.00
16:28:58:790 -> 2373.00
16:28:58:790 -> 2333.00
16:28:58:798 -> 2280.00
16:28:58:798 -> 2115.00
16:28:58:798 -> 2027.00
16:28:58:798 -> 2146.00
16:28:58:798 -> 2374.00
16:28:58:798 -> 2553.00
16:28:58:798 -> 2518.00
16:28:58:802 -> 2372.00
16:28:58:802 -> 2528.00
16:28:58:802 -> 2300.00
16:28:58:802 -> 2242.00
16:28:58:836 -> 2136.00
16:28:58:836 -> 2063.00
16:28:58:836 -> 1937.00
16:28:58:836 -> 2440.00
16:28:58:836 -> 2590.00
16:28:58:836 -> 2605.00
16:28:58:836 -> 2629.00
16:28:58:836 -> 2495.00
16:28:58:836 -> 2257.00
16:28:58:836 -> 2034.00
16:28:58:836 -> 2277.00
16:28:58:836 -> 2526.00
16:28:58:836 -> 2751.00
16:28:58:836 -> 2479.00
16:28:58:836 -> 1768.00
16:28:58:836 -> 2001.00
16:28:58:836 -> 2077.00
16:28:58:836 -> 2464.00
16:28:58:836 -> 2517.00
16:28:58:836 -> 2540.00
16:28:58:836 -> 2418.00
16:28:58:836 -> 2540.00
16:28:58:836 -> 2360.00
16:28:58:836 -> 2299.00
16:28:58:836 -> 2252.00
16:28:58:836 -> 2346.00
16:28:58:836 -> 2400.00
16:28:58:836 -> 2264.00
16:28:58:850 -> 2555.00
16:28:58:850 -> 2327.00
16:28:58:850 -> 2192.00
16:28:58:850 -> 2475.00
16:28:58:850 -> 2447.00
16:28:58:850 -> 2352.00
16:28:58:850 -> 2458.00
16:28:58:850 -> 2419.00
16:28:58:850 -> 2265.00
16:28:58:850 -> 2299.00
16:28:58:850 -> 2440.00
16:28:58:850 -> 2386.00
16:28:58:858 -> 1952.00
16:28:58:858 -> 2447.00
16:28:58:858 -> 2438.00
16:28:58:858 -> 2271.00
16:28:58:858 -> 2234.00
16:28:58:858 -> 2197.00
16:28:58:858 -> 2107.00
16:28:58:869 -> 2507.00
16:28:58:869 -> 2405.00
16:28:58:869 -> 2368.00
16:28:58:869 -> 2090.00
16:28:58:869 -> 2331.00
16:28:58:869 -> 2374.00
16:28:58:869 -> 2253.00
16:28:58:869 -> 2427.00
16:28:58:869 -> 2207.00
16:28:58:894 -> 2378.00
16:28:58:894 -> 2450.00
16:28:58:894 -> 2280.00
16:28:58:894 -> 2477.00
16:28:58:894 -> 2200.00
16:28:58:894 -> 2164.00
16:28:58:894 -> 2358.00
16:28:58:894 -> 2441.00
16:28:58:894 -> 2563.00
16:28:58:894 -> 2425.00
16:28:58:894 -> 2268.00
16:28:58:894 -> 2310.00
16:28:58:894 -> 2225.00
16:28:58:894 -> 2042.00
16:28:58:894 -> 2516.00
16:28:58:894 -> 2360.00
16:28:58:894 -> 2299.00
16:28:58:894 -> 2337.00
16:28:58:894 -> 2339.00
16:28:58:894 -> 2591.00
16:28:58:894 -> 2469.00
16:28:58:900 -> 2610.00
16:28:58:900 -> 2608.00
16:28:58:900 -> 2051.00
16:28:58:900 -> 1991.00
16:28:58:900 -> 2144.00
16:28:58:909 -> 2523.00
16:28:58:909 -> 2701.00
16:28:58:909 -> 2245.00
16:28:58:909 -> 2195.00
16:28:58:909 -> 2240.00
16:28:58:909 -> 2167.00
16:28:58:909 -> 2211.00
16:28:58:974 -> 2128.00
16:28:58:974 -> 2262.00
16:28:58:974 -> 2159.00
16:28:58:974 -> 2495.00
16:28:58:974 -> 2861.00
16:28:58:974 -> 2880.00
16:28:58:974 -> 2512.00
16:28:58:974 -> 2484.00
16:28:58:974 -> 2477.00
16:28:58:974 -> 2324.00
16:28:58:974 -> 2309.00
16:28:58:974 -> 2372.00
16:28:58:974 -> 2414.00
16:28:58:974 -> 2361.00
16:28:58:974 -> 2340.00
16:28:58:974 -> 2332.00
16:28:58:974 -> 2115.00
16:28:58:974 -> 2058.00
16:28:58:974 -> 2219.00
16:28:58:974 -> 2152.00
16:28:58:974 -> 2175.00
16:28:58:974 -> 2381.00
16:28:58:974 -> 2342.00
16:28:58:974 -> 2599.00
16:28:58:974 -> 2529.00
16:28:58:989 -> 2324.00
16:28:58:989 -> 2309.00
16:28:58:989 -> 2380.00
16:28:58:989 -> 2534.00
16:28:58:989 -> 2438.00
16:28:58:989 -> 2226.00
16:28:58:989 -> 1915.00
16:28:58:989 -> 2519.00
16:28:58:989 -> 2521.00
16:28:58:989 -> 2121.00
16:28:58:989 -> 1931.00
16:28:58:989 -> 2239.00
16:28:58:989 -> 2336.00
16:28:58:989 -> 2614.00
16:28:58:989 -> 2812.00
16:28:58:989 -> 2504.00
16:28:58:989 -> 2422.00
16:28:58:989 -> 2399.00
16:28:58:989 -> 2447.00
16:28:58:989 -> 2211.00
16:28:58:989 -> 2333.00
16:28:58:989 -> 2394.00
16:28:58:989 -> 2334.00
16:28:58:989 -> 2328.00
16:28:58:989 -> 2491.00
16:28:58:989 -> 2581.00
16:28:58:989 -> 2483.00
16:28:58:989 -> 2340.00
16:28:58:989 -> 2321.00
16:28:58:989 -> 2430.00
16:28:58:989 -> 2345.00
16:28:58:989 -> 2158.00
16:28:58:989 -> 2217.00
16:28:58:989 -> 2286.00
16:28:58:989 -> 2379.00
16:28:58:989 -> 2599.00
16:28:58:989 -> 2440.00
16:28:58:989 -> 2200.00
16:28:58:989 -> 2364.00
16:28:58:989 -> 2386.00
16:28:58:989 -> 2440.00
16:28:58:989 -> 2488.00
16:28:58:989 -> 2341.00
16:28:58:998 -> 2081.00
16:28:58:998 -> 2084.00
16:28:58:998 -> 2387.00
16:28:58:998 -> 2534.00
16:28:58:998 -> 2290.00
16:28:58:998 -> 2082.00
16:28:58:998 -> 2005.00
16:28:59:001 -> 2215.00
16:28:59:001 -> 2137.00
16:28:59:006 -> 2307.00
16:28:59:006 -> 2512.00
16:28:59:006 -> 2504.00
16:28:59:006 -> 2562.00
16:28:59:030 -> 2574.00
16:28:59:030 -> 2358.00
16:28:59:030 -> 2382.00
16:28:59:030 -> 2344.00
16:28:59:030 -> 2421.00
16:28:59:030 -> 2322.00
16:28:59:030 -> 2177.00
16:28:59:030 -> 2320.00
16:28:59:030 -> 2413.00
16:28:59:030 -> 2172.00
16:28:59:030 -> 2134.00
16:28:59:030 -> 2140.00
16:28:59:030 -> 2232.00
16:28:59:030 -> 2286.00
16:28:59:030 -> 2707.00
16:28:59:030 -> 2763.00
16:28:59:030 -> 2619.00
16:28:59:030 -> 2530.00
16:28:59:030 -> 2398.00
16:28:59:030 -> 2319.00
16:28:59:030 -> 2295.00
16:28:59:032 -> 2305.00
16:28:59:043 -> 2227.00
16:28:59:043 -> 2154.00
16:28:59:043 -> 2295.00
16:28:59:043 -> 2449.00
16:28:59:043 -> 2383.00
16:28:59:043 -> 2225.00
16:28:59:043 -> 2397.00
16:28:59:046 -> 2396.00
16:28:59:046 -> 2240.00
16:28:59:046 -> 2386.00
16:28:59:046 -> 2539.00
16:28:59:046 -> 2325.00
16:28:59:048 -> 2457.00
16:28:59:048 -> 2445.00
16:28:59:056 -> 2381.00
16:28:59:056 -> 2410.00
16:28:59:056 -> 2540.00
16:28:59:056 -> 2451.00
16:28:59:056 -> 2419.00
16:28:59:056 -> 2268.00
16:28:59:056 -> 2107.00
16:28:59:059 -> 2259.00
16:28:59:059 -> 2376.00
16:28:59:061 -> 2214.00
16:28:59:061 -> 2239.00
16:28:59:068 -> 2487.00
16:28:59:068 -> 2467.00
16:28:59:068 -> 2534.00
16:28:59:068 -> 2505.00
16:28:59:068 -> 2378.00
16:28:59:068 -> 2360.00
16:28:59:078 -> 2354.00
16:28:59:078 -> 2252.00
16:28:59:078 -> 2287.00
16:28:59:078 -> 2363.00
16:28:59:078 -> 2269.00
16:28:59:078 -> 2053.00
16:28:59:078 -> 2000.00
16:28:59:078 -> 2327.00
16:28:59:080 -> 2264.00
16:28:59:080 -> 2080.00
16:28:59:083 -> 2419.00
16:28:59:083 -> 2564.00
16:28:59:093 -> 2521.00
16:28:59:093 -> 2252.00
16:28:59:093 -> 2149.00
16:28:59:093 -> 2520.00
16:28:59:093 -> 2414.00
16:28:59:093 -> 2074.00
16:28:59:093 -> 2247.00
16:28:59:093 -> 2493.00
16:28:59:093 -> 2511.00
16:28:59:098 -> 2479.00
16:28:59:098 -> 2572.00
16:28:59:098 -> 2612.00
16:28:59:098 -> 2458.00
16:28:59:102 -> 2133.00
16:28:59:102 -> 2372.00
16:28:59:102 -> 2429.00
16:28:59:102 -> 2510.00
16:28:59:106 -> 2431.00
16:28:59:115 -> 2413.00
16:28:59:115 -> 2281.00
16:28:59:115 -> 2081.00
16:28:59:115 -> 2227.00
16:28:59:115 -> 2471.00
16:28:59:115 -> 2500.00
16:28:59:115 -> 2434.00
16:28:59:115 -> 2334.00
16:28:59:115 -> 2226.00
16:28:59:118 -> 2100.00
16:28:59:118 -> 2520.00
16:28:59:118 -> 2693.00
16:28:59:127 -> 2555.00
16:28:59:127 -> 2322.00
16:28:59:127 -> 2248.00
16:28:59:127 -> 2243.00
16:28:59:127 -> 2117.00
16:28:59:127 -> 2268.00
16:28:59:127 -> 2218.00
16:28:59:136 -> 2401.00
16:28:59:136 -> 2487.00
16:28:59:136 -> 2398.00
16:28:59:136 -> 2434.00
16:28:59:136 -> 2568.00
16:28:59:136 -> 2257.00
16:28:59:136 -> 2151.00
16:28:59:136 -> 2264.00
16:28:59:161 -> 2421.00
16:28:59:161 -> 2496.00
16:28:59:161 -> 2325.00
16:28:59:161 -> 2315.00
16:28:59:161 -> 2156.00
16:28:59:161 -> 2242.00
16:28:59:161 -> 2323.00
16:28:59:161 -> 2434.00
16:28:59:161 -> 2363.00
16:28:59:161 -> 2125.00
16:28:59:161 -> 2268.00
16:28:59:161 -> 2442.00
16:28:59:161 -> 2637.00
16:28:59:161 -> 2756.00
16:28:59:161 -> 2571.00
16:28:59:161 -> 2262.00
16:28:59:161 -> 2304.00
16:28:59:161 -> 2433.00
16:28:59:161 -> 2471.00
16:28:59:161 -> 2298.00
16:28:59:161 -> 2199.00
16:28:59:166 -> 2377.00
16:28:59:166 -> 2374.00
16:28:59:166 -> 2212.00
16:28:59:169 -> 2490.00
16:28:59:169 -> 2361.00
16:28:59:169 -> 2329.00
16:28:59:169 -> 2346.00
16:28:59:174 -> 2480.00
16:28:59:174 -> 2507.00
16:28:59:174 -> 2397.00
16:28:59:175 -> 2248.00
16:28:59:175 -> 1983.00
16:28:59:176 -> 2204.00
16:28:59:177 -> 2261.00
16:28:59:178 -> 2206.00
16:28:59:179 -> 2120.00
16:28:59:181 -> 2110.00
16:28:59:182 -> 2248.00
16:28:59:192 -> 2603.00
16:28:59:192 -> 2808.00
16:28:59:192 -> 2576.00
16:28:59:192 -> 2502.00
16:28:59:192 -> 2661.00
16:28:59:192 -> 2495.00
16:28:59:192 -> 2485.00
16:28:59:192 -> 2305.00
16:28:59:195 -> 2418.00
16:28:59:195 -> 2452.00
16:28:59:195 -> 2507.00
16:28:59:196 -> 2425.00
16:28:59:197 -> 2340.00
16:28:59:203 -> 2204.00
16:28:59:203 -> 2191.00
16:28:59:203 -> 2119.00
16:28:59:203 -> 2103.00
16:28:59:203 -> 2104.00
16:28:59:219 -> 2235.00
16:28:59:219 -> 2702.00
16:28:59:219 -> 2491.00
16:28:59:219 -> 2442.00
16:28:59:219 -> 2350.00
16:28:59:219 -> 2388.00
16:28:59:219 -> 2254.00
16:28:59:219 -> 2190.00
16:28:59:219 -> 2256.00
16:28:59:219 -> 2334.00
16:28:59:219 -> 2374.00
16:28:59:219 -> 2502.00
16:28:59:224 -> 2674.00
16:28:59:224 -> 2559.00
16:28:59:224 -> 2232.00
16:28:59:224 -> 2330.00
16:28:59:224 -> 2250.00
16:28:59:238 -> 2054.00
16:28:59:238 -> 1843.00
16:28:59:238 -> 2128.00
16:28:59:238 -> 2323.00
16:28:59:238 -> 2408.00
16:28:59:238 -> 2496.00
16:28:59:238 -> 2639.00
16:28:59:238 -> 2746.00
16:28:59:238 -> 2588.00
16:28:59:238 -> 2447.00
16:28:59:238 -> 2322.00
16:28:59:249 -> 2456.00
16:28:59:249 -> 2509.00
16:28:59:249 -> 2483.00
16:28:59:249 -> 2420.00
16:28:59:249 -> 2325.00
16:28:59:249 -> 2351.00
16:28:59:249 -> 2383.00
16:28:59:249 -> 2500.00
16:28:59:249 -> 2365.00
16:28:59:249 -> 2371.00
16:28:59:259 -> 2458.00
16:28:59:259 -> 2490.00
16:28:59:259 -> 2324.00
16:28:59:259 -> 2275.00
16:28:59:259 -> 2218.00
16:28:59:259 -> 2155.00
16:28:59:259 -> 2190.00
16:28:59:259 -> 2364.00
16:28:59:260 -> 2559.00
16:28:59:260 -> 2274.00
16:28:59:262 -> 2264.00
16:28:59:263 -> 2341.00
16:28:59:267 -> 2182.00
16:28:59:267 -> 2501.00
16:28:59:267 -> 2459.00
16:28:59:268 -> 2414.00
16:28:59:269 -> 2495.00
16:28:59:271 -> 2406.00
16:28:59:272 -> 2377.00
16:28:59:272 -> 2419.00
16:28:59:274 -> 2329.00
16:28:59:275 -> 2422.00
16:28:59:276 -> 2334.00
16:28:59:277 -> 2324.00
16:28:59:279 -> 2425.00
16:28:59:280 -> 2354.00
16:28:59:281 -> 2161.00
16:28:59:282 -> 2407.00
16:28:59:283 -> 2230.00
16:28:59:284 -> 2290.00
16:28:59:285 -> 2529.00
16:28:59:287 -> 2519.00
16:28:59:294 -> 2165.00
16:28:59:294 -> 2059.00
16:28:59:294 -> 2183.00
16:28:59:294 -> 2122.00
16:28:59:294 -> 2489.00
16:28:59:294 -> 2595.00
16:28:59:301 -> 2542.00
16:28:59:301 -> 2402.00
16:28:59:301 -> 2363.00
16:28:59:301 -> 2418.00
16:28:59:301 -> 2645.00
16:28:59:301 -> 2443.00
16:28:59:302 -> 2464.00
16:28:59:305 -> 2516.00
16:28:59:305 -> 2374.00
16:28:59:306 -> 2366.00
16:28:59:307 -> 2363.00
16:28:59:308 -> 2512.00
16:28:59:309 -> 2373.00
16:28:59:310 -> 2396.00
16:28:59:312 -> 2367.00
16:28:59:313 -> 2269.00
16:28:59:314 -> 2236.00
16:28:59:315 -> 2172.00
16:28:59:316 -> 2180.00
16:28:59:317 -> 2324.00
16:28:59:319 -> 2485.00
16:28:59:320 -> 2345.00
16:28:59:321 -> 2443.00
16:28:59:322 -> 2374.00
16:28:59:323 -> 2470.00
16:28:59:325 -> 2772.00
16:28:59:328 -> 2553.00
16:28:59:328 -> 2287.00
16:28:59:338 -> 2227.00
16:28:59:338 -> 2271.00
16:28:59:338 -> 2216.00
16:28:59:338 -> 2433.00
16:28:59:338 -> 2261.00
16:28:59:338 -> 2461.00
16:28:59:338 -> 2836.00
16:28:59:338 -> 2661.00
16:28:59:343 -> 2457.00
16:28:59:343 -> 2591.00
16:28:59:343 -> 2542.00
16:28:59:343 -> 2305.00
16:28:59:343 -> 2211.00
16:28:59:355 -> 2471.00
16:28:59:355 -> 2546.00
16:28:59:355 -> 2243.00
16:28:59:355 -> 2067.00
16:28:59:355 -> 2409.00
16:28:59:355 -> 2434.00
16:28:59:355 -> 2237.00
16:28:59:355 -> 2555.00
16:28:59:355 -> 2775.00
16:28:59:355 -> 2611.00
16:28:59:356 -> 2387.00
16:28:59:357 -> 2095.00
16:28:59:380 -> 2047.00
16:28:59:380 -> 2243.00
16:28:59:380 -> 2415.00
16:28:59:380 -> 2647.00
16:28:59:380 -> 2504.00
16:28:59:380 -> 2429.00
16:28:59:380 -> 2600.00
16:28:59:380 -> 2554.00
16:28:59:380 -> 2302.00
16:28:59:382 -> 2312.00
16:28:59:382 -> 2491.00
16:28:59:382 -> 2347.00
16:28:59:382 -> 2202.00
16:28:59:382 -> 2292.00
16:28:59:382 -> 2376.00
16:28:59:382 -> 2504.00
16:28:59:382 -> 2646.00
16:28:59:382 -> 2574.00
16:28:59:382 -> 2327.00
16:28:59:382 -> 2117.00
16:28:59:382 -> 2240.00
16:28:59:383 -> 2368.00
16:28:59:384 -> 2458.00
16:28:59:385 -> 2237.00
16:28:59:387 -> 2401.00
16:28:59:392 -> 2253.00
16:28:59:392 -> 2669.00
16:28:59:392 -> 2701.00
16:28:59:392 -> 2523.00
16:28:59:396 -> 2652.00
16:28:59:396 -> 2554.00
16:28:59:396 -> 2535.00
16:28:59:401 -> 2395.00
16:28:59:401 -> 2258.00
16:28:59:401 -> 2421.00
16:28:59:401 -> 2532.00
16:28:59:403 -> 2359.00
16:28:59:403 -> 2280.00
16:28:59:406 -> 2411.00
16:28:59:406 -> 2452.00
16:28:59:406 -> 2336.00
16:28:59:407 -> 2451.00
16:28:59:408 -> 2517.00
16:28:59:409 -> 2337.00
16:28:59:410 -> 2254.00
16:28:59:411 -> 2665.00
16:28:59:413 -> 2686.00
16:28:59:414 -> 2432.00
16:28:59:415 -> 2386.00
16:28:59:416 -> 2510.00
16:28:59:417 -> 2320.00
16:28:59:419 -> 2236.00
16:28:59:420 -> 2539.00
16:28:59:421 -> 2510.00
16:28:59:422 -> 2322.00
16:28:59:423 -> 2459.00
16:28:59:425 -> 2504.00
16:28:59:426 -> 2420.00
16:28:59:427 -> 2444.00
16:28:59:428 -> 2283.00
16:28:59:429 -> 2484.00
16:28:59:431 -> 2507.00
16:28:59:432 -> 2546.00
16:28:59:433 -> 2432.00
16:28:59:434 -> 2466.00
16:28:59:435 -> 2347.00
16:28:59:436 -> 2362.00
16:28:59:438 -> 2138.00
16:28:59:439 -> 1807.00
16:28:59:440 -> 2001.00
16:28:59:441 -> 2154.00
16:28:59:442 -> 2639.00
16:28:59:444 -> 2999.00
16:28:59:445 -> 2808.00
16:28:59:446 -> 2294.00
16:28:59:447 -> 2488.00
16:28:59:449 -> 2381.00
16:28:59:451 -> 2536.00
16:28:59:451 -> 2701.00
16:28:59:452 -> 2614.00
16:28:59:453 -> 2568.00
16:28:59:454 -> 2454.00
16:28:59:456 -> 2525.00
16:28:59:457 -> 2686.00
16:28:59:458 -> 2553.00
16:28:59:459 -> 2398.00
16:28:59:460 -> 2261.00
16:28:59:461 -> 2193.00
16:28:59:463 -> 2226.00
16:28:59:492 -> 2318.00
16:28:59:502 -> 2290.00
16:28:59:502 -> 2295.00
16:28:59:502 -> 2435.00
16:28:59:502 -> 2664.00
16:28:59:502 -> 2624.00
16:28:59:502 -> 2639.00
16:28:59:502 -> 2523.00
16:28:59:502 -> 2598.00
16:28:59:502 -> 2625.00
16:28:59:502 -> 2620.00
16:28:59:502 -> 2428.00
16:28:59:502 -> 2327.00
16:28:59:502 -> 2305.00
16:28:59:502 -> 2464.00
16:28:59:502 -> 2547.00
16:28:59:502 -> 2004.00
16:28:59:502 -> 1873.00
16:28:59:502 -> 2212.00
16:28:59:502 -> 2523.00
16:28:59:502 -> 2756.00
16:28:59:502 -> 3000.00
16:28:59:502 -> 2515.00
16:28:59:502 -> 2439.00
16:28:59:502 -> 2620.00
16:28:59:502 -> 2483.00
16:28:59:502 -> 2526.00
16:28:59:502 -> 2558.00
16:28:59:502 -> 2542.00
16:28:59:502 -> 2640.00
16:28:59:502 -> 2486.00
16:28:59:502 -> 2290.00
16:28:59:502 -> 2244.00
16:28:59:505 -> 2226.00
16:28:59:505 -> 2363.00
16:28:59:506 -> 2313.00
16:28:59:507 -> 2444.00
16:28:59:508 -> 2353.00
16:28:59:509 -> 2384.00
16:28:59:510 -> 2527.00
16:28:59:511 -> 2631.00
16:28:59:513 -> 2683.00
16:28:59:514 -> 2641.00
16:28:59:517 -> 2455.00
16:28:59:517 -> 2401.00
16:28:59:518 -> 2498.00
16:28:59:519 -> 2493.00
16:28:59:520 -> 2364.00
16:28:59:521 -> 2409.00
16:28:59:522 -> 2342.00
16:28:59:523 -> 2228.00
16:28:59:525 -> 2194.00
16:28:59:526 -> 2143.00
16:28:59:527 -> 2088.00
16:28:59:528 -> 2276.00
16:28:59:529 -> 2276.00
16:28:59:530 -> 2322.00
16:28:59:532 -> 2720.00
16:28:59:534 -> 2965.00
16:28:59:535 -> 2944.00
16:28:59:535 -> 2762.00
16:28:59:536 -> 2538.00
16:28:59:538 -> 2478.00
16:28:59:539 -> 2368.00
16:28:59:540 -> 2419.00
16:28:59:541 -> 2469.00
16:28:59:542 -> 2621.00
16:28:59:544 -> 2235.00
16:28:59:545 -> 2418.00
16:28:59:546 -> 2572.00
16:28:59:549 -> 2530.00
16:28:59:549 -> 2501.00
16:28:59:550 -> 2560.00
16:28:59:552 -> 2751.00
16:28:59:559 -> 2529.00
16:28:59:559 -> 2348.00
16:28:59:559 -> 2250.00
16:28:59:559 -> 2431.00
16:28:59:559 -> 2609.00
16:28:59:559 -> 2670.00
16:28:59:559 -> 2505.00
16:28:59:560 -> 2533.00
16:28:59:561 -> 2532.00
16:28:59:563 -> 2442.00
16:28:59:565 -> 2425.00
16:28:59:565 -> 2474.00
16:28:59:566 -> 2430.00
16:28:59:567 -> 2443.00
16:28:59:623 -> 2557.00
16:28:59:623 -> 2374.00
16:28:59:623 -> 2189.00
16:28:59:623 -> 2267.00
16:28:59:623 -> 2556.00
16:28:59:623 -> 2655.00
16:28:59:623 -> 2635.00
16:28:59:623 -> 2379.00
16:28:59:623 -> 2540.00
16:28:59:623 -> 2619.00
16:28:59:623 -> 2515.00
16:28:59:623 -> 2460.00
16:28:59:623 -> 2531.00
16:28:59:623 -> 2461.00
16:28:59:623 -> 2511.00
16:28:59:623 -> 2380.00
16:28:59:623 -> 2308.00
16:28:59:623 -> 2497.00
16:28:59:623 -> 2582.00
16:28:59:623 -> 2456.00
16:28:59:627 -> 2398.00
16:28:59:627 -> 2198.00
16:28:59:627 -> 2377.00
16:28:59:627 -> 2484.00
16:28:59:627 -> 2532.00
16:28:59:627 -> 2475.00
16:28:59:627 -> 2440.00
16:28:59:627 -> 2452.00
16:28:59:627 -> 2289.00
16:28:59:627 -> 2438.00
16:28:59:627 -> 2493.00
16:28:59:627 -> 2695.00
16:28:59:627 -> 2582.00
16:28:59:627 -> 2543.00
16:28:59:627 -> 2567.00
16:28:59:627 -> 2466.00
16:28:59:627 -> 2642.00
16:28:59:627 -> 2594.00
16:28:59:627 -> 2381.00
16:28:59:627 -> 2141.00
16:28:59:627 -> 2279.00
16:28:59:627 -> 2356.00
16:28:59:627 -> 2361.00
16:28:59:627 -> 2497.00
16:28:59:627 -> 2841.00
16:28:59:627 -> 2650.00
16:28:59:627 -> 2632.00
16:28:59:627 -> 2484.00
16:28:59:628 -> 2536.00
16:28:59:628 -> 2488.00
16:28:59:628 -> 2431.00
16:28:59:629 -> 2447.00
16:28:59:630 -> 2523.00
16:28:59:632 -> 2574.00
16:28:59:633 -> 2455.00
16:28:59:653 -> 2432.00
16:28:59:653 -> 2514.00
16:28:59:653 -> 2552.00
16:28:59:659 -> 2528.00
16:28:59:659 -> 2333.00
16:28:59:659 -> 2285.00
16:28:59:659 -> 2613.00
16:28:59:659 -> 2567.00
16:28:59:659 -> 2476.00
16:28:59:659 -> 2526.00
16:28:59:659 -> 2501.00
16:28:59:659 -> 2387.00
16:28:59:659 -> 2366.00
16:28:59:659 -> 2273.00
16:28:59:659 -> 2368.00
16:28:59:659 -> 2460.00
16:28:59:659 -> 2698.00
16:28:59:659 -> 2552.00
16:28:59:662 -> 2665.00
16:28:59:662 -> 2729.00
16:28:59:662 -> 2515.00
16:28:59:662 -> 2506.00
16:28:59:662 -> 2376.00
16:28:59:662 -> 2295.00
16:28:59:663 -> 2322.00
16:28:59:664 -> 2236.00
16:28:59:665 -> 2289.00
16:28:59:666 -> 2549.00
16:28:59:667 -> 2901.00
16:28:59:668 -> 2718.00
16:28:59:670 -> 2561.00
16:28:59:671 -> 2556.00
16:28:59:672 -> 2482.00
16:28:59:673 -> 2459.00
16:28:59:674 -> 2434.00
16:28:59:676 -> 2383.00
16:28:59:677 -> 2481.00
16:28:59:678 -> 2374.00
16:28:59:679 -> 2426.00
16:28:59:680 -> 2393.00
16:28:59:682 -> 2298.00
16:28:59:683 -> 2251.00
16:28:59:684 -> 2577.00
16:28:59:685 -> 2594.00
16:28:59:686 -> 2669.00
16:28:59:688 -> 2649.00
16:28:59:689 -> 2761.00
16:28:59:690 -> 2587.00
16:28:59:691 -> 2483.00
16:28:59:692 -> 2258.00
16:28:59:693 -> 2362.00
16:28:59:695 -> 2235.00
16:28:59:696 -> 2181.00
16:28:59:701 -> 2343.00
16:28:59:701 -> 2762.00
16:28:59:702 -> 2961.00
16:28:59:702 -> 2682.00
16:28:59:703 -> 2563.00
16:28:59:703 -> 2521.00
16:28:59:724 -> 2495.00
16:28:59:724 -> 2311.00
16:28:59:724 -> 2161.00
16:28:59:724 -> 2316.00
16:28:59:724 -> 2498.00
16:28:59:724 -> 2637.00
16:28:59:724 -> 2659.00
16:28:59:724 -> 2608.00
16:28:59:724 -> 2409.00
16:28:59:724 -> 2185.00
16:28:59:724 -> 2319.00
16:28:59:724 -> 2741.00
16:28:59:724 -> 2807.00
16:28:59:724 -> 2729.00
16:28:59:724 -> 2668.00
16:28:59:724 -> 2492.00
16:28:59:724 -> 2469.00
16:28:59:740 -> 2622.00
16:28:59:740 -> 2582.00
16:28:59:740 -> 2532.00
16:28:59:740 -> 2454.00
16:28:59:740 -> 2548.00
16:28:59:740 -> 2588.00
16:28:59:740 -> 2538.00
16:28:59:740 -> 2444.00
16:28:59:740 -> 2404.00
16:28:59:740 -> 2282.00
16:28:59:740 -> 2285.00
16:28:59:740 -> 2290.00
16:28:59:740 -> 2540.00
16:28:59:740 -> 2275.00
16:28:59:786 -> 2168.00
16:28:59:786 -> 2322.00
16:28:59:786 -> 2790.00
16:28:59:786 -> 2774.00
16:28:59:786 -> 2726.00
16:28:59:786 -> 2662.00
16:28:59:786 -> 2581.00
16:28:59:786 -> 2555.00
16:28:59:786 -> 2579.00
16:28:59:786 -> 2581.00
16:28:59:786 -> 2535.00
16:28:59:786 -> 2479.00
16:28:59:786 -> 2405.00
16:28:59:786 -> 2607.00
16:28:59:786 -> 2651.00
16:28:59:786 -> 2483.00
16:28:59:786 -> 2363.00
16:28:59:786 -> 2297.00
16:28:59:786 -> 2346.00
16:28:59:786 -> 2373.00
16:28:59:786 -> 2566.00
16:28:59:786 -> 2600.00
16:28:59:786 -> 2567.00
16:28:59:786 -> 2476.00
16:28:59:786 -> 2593.00
16:28:59:786 -> 2702.00
16:28:59:786 -> 2642.00
16:28:59:786 -> 2541.00
16:28:59:786 -> 2473.00
16:28:59:786 -> 2341.00
16:28:59:786 -> 2287.00
16:28:59:786 -> 2369.00
16:28:59:786 -> 2296.00
16:28:59:786 -> 2456.00
16:28:59:786 -> 2570.00
16:28:59:786 -> 2471.00
16:28:59:786 -> 2472.00
16:28:59:786 -> 2479.00
16:28:59:844 -> 2546.00
16:28:59:844 -> 2666.00
16:28:59:844 -> 2303.00
16:28:59:844 -> 2342.00
16:28:59:844 -> 2408.00
16:28:59:844 -> 2594.00
16:28:59:844 -> 2762.00
16:28:59:844 -> 2728.00
16:28:59:844 -> 2673.00
16:28:59:844 -> 2489.00
16:28:59:844 -> 2376.00
16:28:59:844 -> 2574.00
16:28:59:844 -> 2573.00
16:28:59:844 -> 2505.00
16:28:59:844 -> 2441.00
16:28:59:844 -> 2423.00
16:28:59:844 -> 2458.00
16:28:59:844 -> 2506.00
16:28:59:844 -> 2760.00
16:28:59:844 -> 2760.00
16:28:59:844 -> 2719.00
16:28:59:844 -> 2587.00
16:28:59:844 -> 2425.00
16:28:59:844 -> 2450.00
16:28:59:844 -> 2556.00
16:28:59:844 -> 2538.00
16:28:59:844 -> 2673.00
16:28:59:844 -> 2551.00
16:28:59:844 -> 2430.00
16:28:59:844 -> 2562.00
16:28:59:844 -> 2437.00
16:28:59:844 -> 2433.00
16:28:59:844 -> 2329.00
16:28:59:844 -> 2485.00
16:28:59:844 -> 2690.00
16:28:59:844 -> 2528.00
16:28:59:844 -> 2528.00
16:28:59:844 -> 2422.00
16:28:59:844 -> 2309.00
16:28:59:844 -> 2322.00
16:28:59:844 -> 2390.00
16:28:59:844 -> 2261.00
16:28:59:844 -> 2407.00
16:28:59:844 -> 2643.00
16:28:59:844 -> 2567.00
16:28:59:844 -> 2742.00
16:28:59:844 -> 2555.00
16:28:59:844 -> 2564.00
16:28:59:844 -> 2669.00
16:28:59:865 -> 2661.00
16:28:59:865 -> 2428.00
16:28:59:865 -> 2340.00
16:28:59:865 -> 2417.00
16:28:59:865 -> 2485.00
16:28:59:865 -> 2570.00
16:28:59:865 -> 2718.00
16:28:59:865 -> 2869.00
16:28:59:865 -> 2587.00
16:28:59:865 -> 2663.00
16:28:59:865 -> 2564.00
16:28:59:865 -> 2493.00
16:28:59:865 -> 2545.00
16:28:59:865 -> 2621.00
16:28:59:865 -> 2637.00
16:28:59:865 -> 2544.00
16:28:59:865 -> 2353.00
16:28:59:865 -> 2233.00
16:28:59:875 -> 2381.00
16:28:59:875 -> 2460.00
16:28:59:875 -> 2449.00
16:28:59:875 -> 2525.00
16:28:59:875 -> 2506.00
16:28:59:875 -> 2510.00
16:28:59:875 -> 2407.00
16:28:59:875 -> 2421.00
16:28:59:877 -> 2634.00
16:28:59:877 -> 2699.00
16:28:59:878 -> 2635.00
16:28:59:879 -> 2698.00
16:28:59:880 -> 2616.00
16:28:59:882 -> 2374.00
16:28:59:883 -> 2301.00
16:28:59:884 -> 2400.00
16:28:59:885 -> 2106.00
16:28:59:886 -> 2096.00
16:28:59:887 -> 2330.00
16:28:59:889 -> 2319.00
16:28:59:890 -> 2775.00
16:28:59:891 -> 2789.00
16:28:59:892 -> 2885.00
16:28:59:893 -> 2892.00
16:28:59:896 -> 2670.00
16:28:59:896 -> 2640.00
16:28:59:897 -> 2592.00
16:28:59:898 -> 2572.00
16:28:59:899 -> 2458.00
16:28:59:901 -> 2398.00
16:28:59:902 -> 2560.00
16:28:59:903 -> 2542.00
16:28:59:904 -> 2493.00
16:28:59:905 -> 2536.00
16:28:59:907 -> 2422.00
16:28:59:908 -> 2410.00
16:28:59:909 -> 2334.00
16:28:59:910 -> 2462.00
16:28:59:911 -> 2504.00
16:28:59:912 -> 2488.00
16:28:59:914 -> 2749.00
16:28:59:915 -> 2645.00
16:28:59:920 -> 2601.00
16:28:59:920 -> 2597.00
16:28:59:920 -> 2546.00
16:28:59:920 -> 2693.00
16:28:59:921 -> 2665.00
16:28:59:922 -> 2503.00
16:28:59:923 -> 2496.00
16:28:59:924 -> 2474.00
16:28:59:926 -> 2478.00
16:28:59:927 -> 2517.00
16:28:59:928 -> 2565.00
16:28:59:929 -> 2659.00
16:28:59:930 -> 2635.00
16:28:59:931 -> 2575.00
16:28:59:933 -> 2507.00
16:28:59:934 -> 2516.00
16:28:59:935 -> 2533.00
16:28:59:936 -> 2464.00
16:28:59:937 -> 2425.00
16:28:59:939 -> 2434.00
16:28:59:940 -> 2340.00
16:28:59:941 -> 2188.00
16:28:59:942 -> 2173.00
16:28:59:943 -> 2278.00
16:28:59:945 -> 2280.00
16:28:59:946 -> 2432.00
16:28:59:947 -> 2535.00
16:28:59:948 -> 2932.00
16:28:59:949 -> 3013.00
16:28:59:951 -> 2617.00
16:28:59:952 -> 2689.00
16:28:59:953 -> 2687.00
16:28:59:954 -> 2629.00
16:28:59:955 -> 2603.00
16:28:59:956 -> 2649.00
16:28:59:958 -> 2558.00
16:28:59:959 -> 2582.00
16:28:59:960 -> 2652.00
16:28:59:961 -> 2548.00
16:28:59:962 -> 2527.00
16:28:59:964 -> 2545.00
16:28:59:965 -> 2567.00
16:28:59:966 -> 2581.00
16:28:59:967 -> 2643.00
16:28:59:968 -> 2551.00
16:28:59:970 -> 2518.00
16:28:59:971 -> 2591.00
16:28:59:972 -> 2697.00
16:28:59:973 -> 2364.00
16:28:59:974 -> 2176.00
16:28:59:976 -> 2501.00
16:28:59:977 -> 2446.00
16:28:59:984 -> 2478.00
16:28:59:984 -> 2501.00
16:28:59:984 -> 2404.00
16:28:59:984 -> 2377.00
16:28:59:984 -> 2260.00
16:28:59:985 -> 2223.00
16:28:59:985 -> 2255.00
16:28:59:986 -> 2422.00
16:28:59:989 -> 2812.00
16:29:00:024 -> 2917.00
16:29:00:028 -> 2767.00
16:29:00:028 -> 2602.00
16:29:00:028 -> 2715.00
16:29:00:028 -> 2601.00
16:29:00:028 -> 2607.00
16:29:00:028 -> 2591.00
16:29:00:028 -> 2537.00
16:29:00:028 -> 2543.00
16:29:00:028 -> 2513.00
16:29:00:028 -> 2447.00
16:29:00:028 -> 2413.00
16:29:00:028 -> 2405.00
16:29:00:028 -> 2373.00
16:29:00:028 -> 2367.00
16:29:00:028 -> 2618.00
16:29:00:028 -> 2634.00
16:29:00:028 -> 2644.00
16:29:00:028 -> 2572.00
16:29:00:028 -> 2275.00
16:29:00:028 -> 2020.00
16:29:00:028 -> 1956.00
16:29:00:028 -> 2263.00
16:29:00:028 -> 2484.00
16:29:00:028 -> 2932.00
16:29:00:028 -> 2995.00
16:29:00:028 -> 2908.00
16:29:00:028 -> 2727.00
16:29:00:028 -> 2729.00
16:29:00:028 -> 2660.00
16:29:00:028 -> 2660.00
16:29:00:028 -> 2534.00
16:29:00:028 -> 2462.00
16:29:00:045 -> 2349.00
16:29:00:045 -> 2438.00
16:29:00:045 -> 2670.00
16:29:00:045 -> 2760.00
16:29:00:045 -> 2805.00
16:29:00:045 -> 2567.00
16:29:00:045 -> 2476.00
16:29:00:045 -> 2466.00
16:29:00:045 -> 2478.00
16:29:00:045 -> 2547.00
16:29:00:045 -> 2460.00
16:29:00:045 -> 2527.00
16:29:00:045 -> 2634.00
16:29:00:045 -> 2654.00
16:29:00:045 -> 2373.00
16:29:00:049 -> 2546.00
16:29:00:049 -> 2601.00
16:29:00:049 -> 2580.00
16:29:00:050 -> 2498.00
16:29:00:050 -> 2379.00
16:29:00:053 -> 2262.00
16:29:00:053 -> 2332.00
16:29:00:055 -> 2537.00
16:29:00:055 -> 2619.00
16:29:00:056 -> 2583.00
16:29:00:058 -> 2642.00
16:29:00:067 -> 2743.00
16:29:00:067 -> 2666.00
16:29:00:067 -> 2513.00
16:29:00:067 -> 2391.00
16:29:00:067 -> 2588.00
16:29:00:067 -> 2565.00
16:29:00:067 -> 2593.00
16:29:00:067 -> 2511.00
16:29:00:071 -> 2557.00
16:29:00:071 -> 2613.00
16:29:00:071 -> 2585.00
16:29:00:075 -> 2587.00
16:29:00:075 -> 2623.00
16:29:00:075 -> 2403.00
16:29:00:077 -> 2243.00
16:29:00:077 -> 2384.00
16:29:00:096 -> 2312.00
16:29:00:096 -> 2367.00
16:29:00:096 -> 2473.00
16:29:00:096 -> 2316.00
16:29:00:096 -> 2659.00
16:29:00:103 -> 2681.00
16:29:00:103 -> 2580.00
16:29:00:103 -> 2686.00
16:29:00:103 -> 2661.00
16:29:00:103 -> 2682.00
16:29:00:103 -> 2725.00
16:29:00:103 -> 2736.00
16:29:00:103 -> 2742.00
16:29:00:103 -> 2541.00
16:29:00:103 -> 2260.00
16:29:00:103 -> 2198.00
16:29:00:103 -> 2328.00
16:29:00:103 -> 2465.00
16:29:00:103 -> 2109.00
16:29:00:103 -> 2334.00
16:29:00:103 -> 2714.00
16:29:00:103 -> 2902.00
16:29:00:141 -> 2759.00
16:29:00:141 -> 2734.00
16:29:00:141 -> 2746.00
16:29:00:141 -> 2666.00
16:29:00:141 -> 2614.00
16:29:00:141 -> 2531.00
16:29:00:141 -> 2425.00
16:29:00:141 -> 2372.00
16:29:00:141 -> 2502.00
16:29:00:141 -> 2505.00
16:29:00:141 -> 2365.00
16:29:00:141 -> 2469.00
16:29:00:141 -> 2428.00
16:29:00:141 -> 2260.00
16:29:00:141 -> 2284.00
16:29:00:141 -> 2238.00
16:29:00:141 -> 2122.00
16:29:00:141 -> 2500.00
16:29:00:141 -> 3060.00
16:29:00:141 -> 3143.00
16:29:00:141 -> 2880.00
16:29:00:141 -> 2751.00
16:29:00:141 -> 2740.00
16:29:00:141 -> 2576.00
16:29:00:141 -> 2362.00
16:29:00:141 -> 2485.00
16:29:00:141 -> 2517.00
16:29:00:141 -> 2653.00
16:29:00:141 -> 2560.00
16:29:00:158 -> 2516.00
16:29:00:158 -> 2508.00
16:29:00:158 -> 2540.00
16:29:00:158 -> 2392.00
16:29:00:158 -> 2392.00
16:29:00:158 -> 2414.00
16:29:00:158 -> 2557.00
16:29:00:158 -> 2537.00
16:29:00:158 -> 2457.00
16:29:00:158 -> 2523.00
16:29:00:158 -> 2564.00
16:29:00:158 -> 2521.00
16:29:00:163 -> 2620.00
16:29:00:163 -> 2662.00
16:29:00:163 -> 2635.00
16:29:00:163 -> 2657.00
16:29:00:163 -> 2600.00
16:29:00:163 -> 2592.00
16:29:00:163 -> 2503.00
16:29:00:163 -> 2388.00
16:29:00:163 -> 2370.00
16:29:00:164 -> 2294.00
16:29:00:179 -> 2312.00
16:29:00:179 -> 2490.00
16:29:00:179 -> 2506.00
16:29:00:179 -> 2668.00
16:29:00:179 -> 2618.00
16:29:00:179 -> 2661.00
16:29:00:179 -> 2696.00
16:29:00:179 -> 2627.00
16:29:00:179 -> 2467.00
16:29:00:179 -> 2415.00
16:29:00:179 -> 2347.00
16:29:00:179 -> 2196.00
16:29:00:179 -> 2336.00
16:29:00:180 -> 2731.00
16:29:00:181 -> 2749.00
16:29:00:183 -> 2581.00
16:29:00:184 -> 2593.00
16:29:00:185 -> 2548.00
16:29:00:186 -> 2588.00
16:29:00:188 -> 2618.00
16:29:00:189 -> 2687.00
16:29:00:190 -> 2470.00
16:29:00:191 -> 2637.00
16:29:00:192 -> 2624.00
16:29:00:193 -> 2446.00
16:29:00:194 -> 2382.00
16:29:00:196 -> 2577.00
16:29:00:197 -> 2466.00
16:29:00:199 -> 2550.00
16:29:00:206 -> 2359.00
16:29:00:206 -> 2601.00
16:29:00:206 -> 2706.00
16:29:00:206 -> 2636.00
16:29:00:206 -> 2451.00
16:29:00:206 -> 2560.00
16:29:00:207 -> 2611.00
16:29:00:208 -> 2654.00
16:29:00:209 -> 2530.00
16:29:00:218 -> 2610.00
16:29:00:218 -> 2627.00
16:29:00:218 -> 2554.00
16:29:00:218 -> 2541.00
16:29:00:218 -> 2506.00
16:29:00:218 -> 2490.00
16:29:00:218 -> 2465.00
16:29:00:220 -> 2446.00
16:29:00:220 -> 2362.00
16:29:00:221 -> 2413.00
16:29:00:222 -> 2465.00
16:29:00:223 -> 2588.00
16:29:00:224 -> 2503.00
16:29:00:225 -> 2530.00
16:29:00:227 -> 2591.00
16:29:00:228 -> 2628.00
16:29:00:235 -> 2616.00
16:29:00:235 -> 2567.00
16:29:00:235 -> 2520.00
16:29:00:235 -> 2567.00
16:29:00:235 -> 2480.00
16:29:00:235 -> 2392.00
16:29:00:243 -> 2319.00
16:29:00:243 -> 2368.00
16:29:00:243 -> 2404.00
16:29:00:243 -> 2462.00
16:29:00:243 -> 2577.00
16:29:00:243 -> 2706.00
16:29:00:243 -> 2639.00
16:29:00:244 -> 2550.00
16:29:00:246 -> 2529.00
16:29:00:247 -> 2659.00
16:29:00:248 -> 2631.00
16:29:00:249 -> 2534.00
16:29:00:250 -> 2503.00
16:29:00:252 -> 2433.00
16:29:00:253 -> 2486.00
16:29:00:254 -> 2411.00
16:29:00:255 -> 2339.00
16:29:00:256 -> 2323.00
16:29:00:258 -> 2315.00
16:29:00:259 -> 2516.00
16:29:00:260 -> 2841.00
16:29:00:261 -> 2674.00
16:29:00:262 -> 2594.00
16:29:00:263 -> 2598.00
16:29:00:265 -> 2609.00
16:29:00:266 -> 2632.00
16:29:00:267 -> 2508.00
16:29:00:268 -> 2235.00
16:29:00:269 -> 2103.00
16:29:00:271 -> 2347.00
16:29:00:272 -> 2401.00
16:29:00:273 -> 2198.00
16:29:00:274 -> 2586.00
16:29:00:275 -> 2959.00
16:29:00:277 -> 2949.00
16:29:00:279 -> 2809.00
16:29:00:280 -> 2715.00
16:29:00:280 -> 2651.00
16:29:00:284 -> 2617.00
16:29:00:284 -> 2575.00
16:29:00:284 -> 2563.00
16:29:00:287 -> 2535.00
16:29:00:287 -> 2531.00
16:29:00:294 -> 2567.00
16:29:00:294 -> 2527.00
16:29:00:294 -> 2560.00
16:29:00:294 -> 2531.00
16:29:00:294 -> 2468.00
16:29:00:294 -> 2430.00
16:29:00:302 -> 2395.00
16:29:00:302 -> 2536.00
16:29:00:302 -> 2555.00
16:29:00:302 -> 2473.00
16:29:00:302 -> 2429.00
16:29:00:302 -> 2536.00
16:29:00:302 -> 2500.00
16:29:00:305 -> 2514.00
16:29:00:307 -> 2535.00
16:29:00:307 -> 2577.00
16:29:00:307 -> 2525.00
16:29:00:319 -> 2463.00
16:29:00:319 -> 2427.00
16:29:00:319 -> 2474.00
16:29:00:319 -> 2470.00
16:29:00:319 -> 2404.00
16:29:00:319 -> 2571.00
16:29:00:319 -> 2357.00
16:29:00:319 -> 2405.00
16:29:00:319 -> 2650.00
16:29:00:319 -> 2596.00
16:29:00:320 -> 2641.00
16:29:00:321 -> 2637.00
16:29:00:322 -> 2539.00
16:29:00:323 -> 2612.00
16:29:00:324 -> 2445.00
16:29:00:325 -> 2457.00
16:29:00:327 -> 2307.00
16:29:00:328 -> 2321.00
16:29:00:329 -> 2325.00
16:29:00:330 -> 2403.00
16:29:00:331 -> 2648.00
16:29:00:332 -> 2482.00
16:29:00:334 -> 2437.00
16:29:00:335 -> 2630.00
16:29:00:336 -> 2646.00
16:29:00:337 -> 2538.00
16:29:00:338 -> 2579.00
16:29:00:340 -> 2554.00
16:29:00:341 -> 2608.00
16:29:00:342 -> 2638.00
16:29:00:343 -> 2544.00
16:29:00:344 -> 2572.00
16:29:00:346 -> 2406.00
16:29:00:347 -> 2545.00
16:29:00:348 -> 2577.00
16:29:00:349 -> 2607.00
16:29:00:350 -> 2675.00
16:29:00:352 -> 2580.00
16:29:00:353 -> 2580.00
16:29:00:357 -> 2556.00
16:29:00:357 -> 2509.00
16:29:00:357 -> 2448.00
16:29:00:397 -> 2528.00
16:29:00:397 -> 2477.00
16:29:00:397 -> 2331.00
16:29:00:397 -> 2488.00
16:29:00:397 -> 2561.00
16:29:00:397 -> 2548.00
16:29:00:397 -> 2481.00
16:29:00:397 -> 2572.00
16:29:00:397 -> 2571.00
16:29:00:397 -> 2581.00
16:29:00:397 -> 2467.00
16:29:00:397 -> 2483.00
16:29:00:397 -> 2508.00
16:29:00:397 -> 2434.00
16:29:00:397 -> 2384.00
16:29:00:397 -> 2349.00
16:29:00:397 -> 2237.00
16:29:00:397 -> 2431.00
16:29:00:397 -> 2522.00
16:29:00:397 -> 2758.00
16:29:00:397 -> 2663.00
16:29:00:397 -> 2558.00
16:29:00:397 -> 2485.00
16:29:00:397 -> 2563.00
16:29:00:397 -> 2669.00
16:29:00:397 -> 2602.00
16:29:00:397 -> 2391.00
16:29:00:397 -> 2390.00
16:29:00:397 -> 2438.00
16:29:00:397 -> 2488.00
16:29:00:397 -> 2737.00
16:29:00:397 -> 2558.00
16:29:00:397 -> 2543.00
16:29:00:397 -> 2626.00
16:29:00:405 -> 2581.00
16:29:00:405 -> 2511.00
16:29:00:405 -> 2565.00
16:29:00:405 -> 2462.00
16:29:00:405 -> 2506.00
16:29:00:405 -> 2556.00
16:29:00:435 -> 2599.00
16:29:00:435 -> 2522.00
16:29:00:435 -> 2464.00
16:29:00:435 -> 2428.00
16:29:00:435 -> 2457.00
16:29:00:435 -> 2437.00
16:29:00:435 -> 2402.00
16:29:00:435 -> 2513.00
16:29:00:435 -> 2424.00
16:29:00:435 -> 2434.00
16:29:00:435 -> 2454.00
16:29:00:435 -> 2463.00
16:29:00:435 -> 2438.00
16:29:00:435 -> 2531.00
16:29:00:435 -> 2381.00
16:29:00:435 -> 2610.00
16:29:00:435 -> 2829.00
16:29:00:435 -> 2692.00
16:29:00:435 -> 2676.00
16:29:00:435 -> 2645.00
16:29:00:435 -> 2606.00
16:29:00:435 -> 2566.00
16:29:00:435 -> 2464.00
16:29:00:435 -> 2519.00
16:29:00:435 -> 2585.00
16:29:00:440 -> 2555.00
16:29:00:440 -> 2583.00
16:29:00:440 -> 2593.00
16:29:00:440 -> 2450.00
16:29:00:440 -> 2341.00
16:29:00:478 -> 2449.00
16:29:00:478 -> 2481.00
16:29:00:478 -> 2584.00
16:29:00:478 -> 2524.00
16:29:00:478 -> 2573.00
16:29:00:478 -> 2429.00
16:29:00:478 -> 2393.00
16:29:00:478 -> 2513.00
16:29:00:478 -> 2482.00
16:29:00:478 -> 2295.00
16:29:00:478 -> 2414.00
16:29:00:478 -> 2587.00
16:29:00:478 -> 2622.00
16:29:00:478 -> 2602.00
16:29:00:478 -> 2613.00
16:29:00:478 -> 2619.00
16:29:00:478 -> 2611.00
16:29:00:478 -> 2592.00
16:29:00:478 -> 2567.00
16:29:00:478 -> 2484.00
16:29:00:478 -> 2408.00
16:29:00:478 -> 2241.00
16:29:00:478 -> 2274.00
16:29:00:478 -> 2336.00
16:29:00:478 -> 2327.00
16:29:00:478 -> 2624.00
16:29:00:478 -> 2621.00
16:29:00:478 -> 2520.00
16:29:00:478 -> 2388.00
16:29:00:478 -> 2265.00
16:29:00:478 -> 2304.00
16:29:00:478 -> 2474.00
16:29:00:492 -> 2663.00
16:29:00:492 -> 2784.00
16:29:00:492 -> 2708.00
16:29:00:492 -> 2601.00
16:29:00:492 -> 2644.00
16:29:00:492 -> 2561.00
16:29:00:492 -> 2534.00
16:29:00:492 -> 2499.00
16:29:00:492 -> 2451.00
16:29:00:508 -> 2366.00
16:29:00:508 -> 2550.00
16:29:00:508 -> 2511.00
16:29:00:508 -> 2529.00
16:29:00:508 -> 2554.00
16:29:00:508 -> 2662.00
16:29:00:508 -> 2646.00
16:29:00:508 -> 2578.00
16:29:00:508 -> 2600.00
16:29:00:508 -> 2617.00
16:29:00:508 -> 2397.00
16:29:00:508 -> 2137.00
16:29:00:508 -> 2314.00
16:29:00:508 -> 2292.00
16:29:00:508 -> 2439.00
16:29:00:508 -> 2593.00
16:29:00:561 -> 2598.00
16:29:00:561 -> 2726.00
16:29:00:561 -> 2650.00
16:29:00:561 -> 2562.00
16:29:00:561 -> 2523.00
16:29:00:561 -> 2341.00
16:29:00:561 -> 2202.00
16:29:00:561 -> 2117.00
16:29:00:561 -> 2271.00
16:29:00:561 -> 2125.00
16:29:00:561 -> 2255.00
16:29:00:561 -> 2688.00
16:29:00:561 -> 3083.00
16:29:00:561 -> 2954.00
16:29:00:561 -> 2725.00
16:29:00:561 -> 2693.00
16:29:00:561 -> 2672.00
16:29:00:561 -> 2583.00
16:29:00:561 -> 2565.00
16:29:00:561 -> 2603.00
16:29:00:561 -> 2568.00
16:29:00:580 -> 2552.00
16:29:00:580 -> 2547.00
16:29:00:580 -> 2556.00
16:29:00:580 -> 2616.00
16:29:00:580 -> 2575.00
16:29:00:580 -> 2444.00
16:29:00:580 -> 2338.00
16:29:00:580 -> 2219.00
16:29:00:580 -> 2284.00
16:29:00:580 -> 2204.00
16:29:00:580 -> 2265.00
16:29:00:580 -> 2216.00
16:29:00:580 -> 2376.00
16:29:00:580 -> 2842.00
16:29:00:580 -> 2916.00
16:29:00:580 -> 2802.00
16:29:00:580 -> 2710.00
16:29:00:580 -> 2614.00
16:29:00:580 -> 2620.00
16:29:00:580 -> 2591.00
16:29:00:580 -> 2473.00
16:29:00:580 -> 2417.00
16:29:00:580 -> 2428.00
16:29:00:580 -> 2430.00
16:29:00:580 -> 2327.00
16:29:00:580 -> 2440.00
16:29:00:580 -> 2478.00
16:29:00:580 -> 2474.00
16:29:00:580 -> 2420.00
16:29:00:580 -> 2366.00
16:29:00:580 -> 2514.00
16:29:00:580 -> 2662.00
16:29:00:580 -> 2715.00
16:29:00:583 -> 2364.00
16:29:00:583 -> 2489.00
16:29:00:583 -> 2557.00
16:29:00:583 -> 2595.00
16:29:00:583 -> 2596.00
16:29:00:583 -> 2560.00
16:29:00:583 -> 2488.00
16:29:00:583 -> 2459.00
16:29:00:583 -> 2438.00
16:29:00:584 -> 2236.00
16:29:00:585 -> 2228.00
16:29:00:586 -> 2424.00
16:29:00:587 -> 2405.00
16:29:00:588 -> 2484.00
16:29:00:589 -> 2558.00
16:29:00:591 -> 2490.00
16:29:00:592 -> 2636.00
16:29:00:594 -> 2657.00
16:29:00:595 -> 2691.00
16:29:00:595 -> 2640.00
16:29:00:597 -> 2625.00
16:29:00:599 -> 2631.00
16:29:00:602 -> 2503.00
16:29:00:602 -> 2435.00
16:29:00:602 -> 2457.00
16:29:00:603 -> 2455.00
16:29:00:607 -> 2429.00
16:29:00:607 -> 2301.00
16:29:00:607 -> 2796.00
16:29:00:608 -> 2755.00
16:29:00:609 -> 2542.00
16:29:00:610 -> 2579.00
16:29:00:611 -> 2525.00
16:29:00:612 -> 2458.00
16:29:00:613 -> 2493.00
16:29:00:614 -> 2481.00
16:29:00:616 -> 2478.00
16:29:00:617 -> 2542.00
16:29:00:618 -> 2401.00
16:29:00:619 -> 2293.00
16:29:00:620 -> 2306.00
16:29:00:622 -> 2383.00
16:29:00:623 -> 2418.00
16:29:00:624 -> 2351.00
16:29:00:625 -> 2270.00
16:29:00:626 -> 2270.00
16:29:00:628 -> 2385.00
16:29:00:629 -> 2540.00
16:29:00:630 -> 2542.00
16:29:00:631 -> 2982.00
16:29:00:632 -> 2916.00
16:29:00:633 -> 2752.00
16:29:00:635 -> 2532.00
16:29:00:636 -> 2611.00
16:29:00:637 -> 2515.00
16:29:00:638 -> 2354.00
16:29:00:639 -> 2306.00
16:29:00:641 -> 2356.00
16:29:00:642 -> 2304.00
16:29:00:643 -> 2260.00
16:29:00:644 -> 2442.00
16:29:00:645 -> 2643.00
16:29:00:646 -> 2730.00
16:29:00:648 -> 2727.00
16:29:00:649 -> 2781.00
16:29:00:650 -> 2569.00
16:29:00:651 -> 2503.00
16:29:00:653 -> 2472.00
16:29:00:654 -> 2552.00
16:29:00:655 -> 2519.00
16:29:00:656 -> 2475.00
16:29:00:657 -> 2474.00
16:29:00:659 -> 2536.00
16:29:00:660 -> 2562.00
16:29:00:661 -> 2554.00
16:29:00:662 -> 2487.00
16:29:00:663 -> 2442.00
16:29:00:664 -> 2421.00
16:29:00:665 -> 2362.00
16:29:00:667 -> 2348.00
16:29:00:668 -> 2315.00
16:29:00:669 -> 2201.00
16:29:00:670 -> 2414.00
16:29:00:672 -> 2583.00
16:29:00:673 -> 2605.00
16:29:00:674 -> 2647.00
16:29:00:675 -> 2516.00
16:29:00:676 -> 2490.00
16:29:00:678 -> 2454.00
16:29:00:679 -> 2458.00
16:29:00:680 -> 2403.00
16:29:00:681 -> 2385.00
16:29:00:682 -> 2380.00
16:29:00:684 -> 2406.00
16:29:00:685 -> 2571.00
16:29:00:686 -> 2792.00
16:29:00:687 -> 2687.00
16:29:00:688 -> 2641.00
16:29:00:689 -> 2581.00
16:29:00:691 -> 2568.00
16:29:00:692 -> 2506.00
16:29:00:693 -> 2527.00
16:29:00:694 -> 2517.00
16:29:00:695 -> 2499.00
16:29:00:697 -> 2457.00
16:29:00:698 -> 2434.00
16:29:00:699 -> 2353.00
16:29:00:700 -> 2286.00
16:29:00:701 -> 2338.00
16:29:00:703 -> 2560.00
16:29:00:704 -> 2585.00
16:29:00:705 -> 2521.00
16:29:00:706 -> 2488.00
16:29:00:707 -> 2400.00
16:29:00:708 -> 2387.00
16:29:00:710 -> 2509.00
16:29:00:711 -> 2461.00
16:29:00:712 -> 2478.00
16:29:00:713 -> 2443.00
16:29:00:714 -> 2493.00
16:29:00:716 -> 2711.00
16:29:00:717 -> 2571.00
16:29:00:719 -> 2450.00
16:29:00:724 -> 2544.00
16:29:00:724 -> 2487.00
16:29:00:724 -> 2477.00
16:29:00:724 -> 2524.00
16:29:00:724 -> 2521.00
16:29:00:725 -> 2506.00
16:29:00:726 -> 2378.00
16:29:00:727 -> 2513.00
16:29:00:730 -> 2498.00
16:29:00:744 -> 2512.00
16:29:00:744 -> 2516.00
16:29:00:744 -> 2379.00
16:29:00:744 -> 2510.00
16:29:00:744 -> 2372.00
16:29:00:744 -> 2441.00
16:29:00:744 -> 2461.00
16:29:00:744 -> 2419.00
16:29:00:744 -> 2570.00
16:29:00:744 -> 2507.00
16:29:00:744 -> 2508.00
16:29:00:744 -> 2531.00
16:29:00:744 -> 2539.00
16:29:00:745 -> 2498.00
16:29:00:747 -> 2496.00
16:29:00:748 -> 2510.00
16:29:00:749 -> 2463.00
16:29:00:750 -> 2336.00
16:29:00:752 -> 2437.00
16:29:00:757 -> 2443.00
16:29:00:757 -> 2460.00
16:29:00:757 -> 2506.00
16:29:00:757 -> 2595.00
16:29:00:760 -> 2613.00
16:29:00:760 -> 2596.00
16:29:00:760 -> 2584.00
16:29:00:761 -> 2544.00
16:29:00:762 -> 2575.00
16:29:00:763 -> 2493.00
16:29:00:764 -> 2475.00
16:29:00:766 -> 2402.00
16:29:00:767 -> 2436.00
16:29:00:768 -> 2489.00
16:29:00:769 -> 2334.00
16:29:00:770 -> 2522.00
16:29:00:771 -> 2524.00
16:29:00:773 -> 2463.00
16:29:00:774 -> 2453.00
16:29:00:775 -> 2519.00
16:29:00:776 -> 2490.00
16:29:00:777 -> 2497.00
16:29:00:779 -> 2476.00
16:29:00:780 -> 2426.00
16:29:00:781 -> 2414.00
16:29:00:782 -> 2552.00
16:29:00:783 -> 2676.00
16:29:00:785 -> 2634.00
16:29:00:786 -> 2545.00
16:29:00:787 -> 2417.00
16:29:00:788 -> 2386.00
16:29:00:789 -> 2453.00
16:29:00:791 -> 2448.00
16:29:00:792 -> 2515.00
16:29:00:793 -> 2444.00
16:29:00:794 -> 2326.00
16:29:00:795 -> 2479.00
16:29:00:796 -> 2499.00
16:29:00:798 -> 2425.00
16:29:00:799 -> 2605.00
16:29:00:800 -> 2612.00
16:29:00:801 -> 2439.00
16:29:00:803 -> 2445.00
16:29:00:824 -> 2560.00
16:29:00:824 -> 2583.00
16:29:00:824 -> 2552.00
16:29:00:824 -> 2485.00
16:29:00:824 -> 2445.00
16:29:00:824 -> 2541.00
16:29:00:824 -> 2557.00
16:29:00:824 -> 2574.00
16:29:00:824 -> 2498.00
16:29:00:824 -> 2403.00
16:29:00:824 -> 2405.00
16:29:00:832 -> 2401.00
16:29:00:832 -> 2341.00
16:29:00:832 -> 2411.00
16:29:00:832 -> 2521.00
16:29:00:832 -> 2499.00
16:29:00:832 -> 2536.00
16:29:00:832 -> 2586.00
16:29:00:832 -> 2558.00
16:29:00:832 -> 2572.00
16:29:00:832 -> 2535.00
16:29:00:834 -> 2257.00
16:29:00:834 -> 2247.00
16:29:00:834 -> 2396.00
16:29:00:834 -> 2251.00
16:29:00:834 -> 2421.00
16:29:00:835 -> 2715.00
16:29:00:836 -> 2702.00
16:29:00:837 -> 2636.00
16:29:00:838 -> 2579.00
16:29:00:839 -> 2577.00
16:29:00:841 -> 2543.00
16:29:00:842 -> 2544.00
16:29:00:843 -> 2484.00
16:29:00:844 -> 2402.00
16:29:00:848 -> 2411.00
16:29:00:848 -> 2407.00
16:29:00:848 -> 2355.00
16:29:00:851 -> 2384.00
16:29:00:851 -> 2525.00
16:29:00:856 -> 2525.00
16:29:00:856 -> 2643.00
16:29:00:856 -> 2539.00
16:29:00:856 -> 2525.00
16:29:00:860 -> 2505.00
16:29:00:860 -> 2537.00
16:29:00:860 -> 2421.00
16:29:00:866 -> 2465.00
16:29:00:866 -> 2484.00
16:29:00:866 -> 2495.00
16:29:00:866 -> 2486.00
16:29:00:866 -> 2475.00
16:29:00:866 -> 2441.00
16:29:00:873 -> 2491.00
16:29:00:873 -> 2479.00
16:29:00:873 -> 2470.00
16:29:00:873 -> 2496.00
16:29:00:873 -> 2534.00
16:29:00:873 -> 2530.00
16:29:00:879 -> 2423.00
16:29:00:879 -> 2435.00
16:29:00:879 -> 2312.00
16:29:00:879 -> 2364.00
16:29:00:882 -> 2414.00
16:29:00:882 -> 2390.00
16:29:00:883 -> 2397.00
16:29:00:883 -> 2587.00
16:29:00:884 -> 2703.00
16:29:00:885 -> 2677.00
16:29:00:886 -> 2550.00
16:29:00:887 -> 2469.00
16:29:00:888 -> 2503.00
16:29:00:889 -> 2449.00
16:29:00:928 -> 2543.00
16:29:00:928 -> 2540.00
16:29:00:928 -> 2503.00
16:29:00:928 -> 2456.00
16:29:00:928 -> 2478.00
16:29:00:928 -> 2523.00
16:29:00:928 -> 2461.00
16:29:00:928 -> 2440.00
16:29:00:928 -> 2495.00
16:29:00:928 -> 2421.00
16:29:00:928 -> 2394.00
16:29:00:928 -> 2342.00
16:29:00:928 -> 2404.00
16:29:00:928 -> 2530.00
16:29:00:928 -> 2604.00
16:29:00:928 -> 2549.00
16:29:00:928 -> 2519.00
16:29:00:928 -> 2612.00
16:29:00:928 -> 2579.00
16:29:00:928 -> 2399.00
16:29:00:928 -> 2412.00
16:29:00:928 -> 2435.00
16:29:00:928 -> 2523.00
16:29:00:928 -> 2666.00
16:29:00:928 -> 2556.00
16:29:00:928 -> 2527.00
16:29:00:928 -> 2418.00
16:29:00:928 -> 2451.00
16:29:00:928 -> 2440.00
16:29:00:928 -> 2402.00
16:29:00:928 -> 2374.00
16:29:00:961 -> 2512.00
16:29:00:961 -> 2575.00
16:29:00:961 -> 2481.00
16:29:00:961 -> 2488.00
16:29:00:961 -> 2471.00
16:29:00:961 -> 2430.00
16:29:00:961 -> 2521.00
16:29:00:961 -> 2495.00
16:29:00:961 -> 2450.00
16:29:00:961 -> 2432.00
16:29:00:961 -> 2355.00
16:29:00:961 -> 2392.00
16:29:00:961 -> 2455.00
16:29:00:961 -> 2515.00
16:29:00:961 -> 2449.00
16:29:00:961 -> 2414.00
16:29:00:961 -> 2375.00
16:29:00:961 -> 2297.00
16:29:00:961 -> 2424.00
16:29:00:961 -> 2495.00
16:29:00:961 -> 2598.00
16:29:00:961 -> 2618.00
16:29:00:961 -> 2491.00
16:29:00:961 -> 2585.00
16:29:00:961 -> 2580.00
16:29:00:961 -> 2530.00
16:29:00:961 -> 2568.00
16:29:00:961 -> 2491.00
16:29:00:961 -> 2444.00
16:29:00:986 -> 2430.00
16:29:00:986 -> 2434.00
16:29:00:986 -> 2475.00
16:29:00:986 -> 2309.00
16:29:00:986 -> 2184.00
16:29:00:986 -> 2228.00
16:29:00:986 -> 2197.00
16:29:00:986 -> 2373.00
16:29:00:986 -> 2814.00
16:29:00:986 -> 2615.00
16:29:00:986 -> 2424.00
16:29:00:986 -> 2585.00
16:29:00:986 -> 2686.00
16:29:00:986 -> 2652.00
16:29:00:986 -> 2549.00
16:29:00:986 -> 2559.00
16:29:00:986 -> 2526.00
16:29:00:986 -> 2545.00
16:29:00:986 -> 2514.00
16:29:00:986 -> 2489.00
16:29:00:986 -> 2465.00
16:29:01:020 -> 2517.00
16:29:01:020 -> 2498.00
16:29:01:020 -> 2446.00
16:29:01:020 -> 2353.00
16:29:01:020 -> 2388.00
16:29:01:020 -> 2362.00
16:29:01:020 -> 2407.00
16:29:01:020 -> 2500.00
16:29:01:020 -> 2572.00
16:29:01:020 -> 2596.00
16:29:01:020 -> 2539.00
16:29:01:020 -> 2479.00
16:29:01:020 -> 2363.00
16:29:01:020 -> 2497.00
16:29:01:020 -> 2549.00
16:29:01:020 -> 2571.00
16:29:01:020 -> 2523.00
16:29:01:020 -> 2396.00
16:29:01:020 -> 2442.00
16:29:01:020 -> 2416.00
16:29:01:020 -> 2523.00
16:29:01:020 -> 2472.00
16:29:01:020 -> 2439.00
16:29:01:020 -> 2453.00
16:29:01:020 -> 2416.00
16:29:01:020 -> 2440.00
16:29:01:020 -> 2452.00
16:29:01:020 -> 2345.00
16:29:01:030 -> 2406.00
16:29:01:030 -> 2481.00
16:29:01:030 -> 2483.00
16:29:01:030 -> 2424.00
16:29:01:030 -> 2537.00
16:29:01:030 -> 2338.00
16:29:01:030 -> 2359.00
16:29:01:030 -> 2424.00
16:29:01:030 -> 2513.00
16:29:01:117 -> 2444.00
16:29:01:117 -> 2426.00
16:29:01:117 -> 2434.00
16:29:01:117 -> 2449.00
16:29:01:117 -> 2526.00
16:29:01:117 -> 2615.00
16:29:01:117 -> 2412.00
16:29:01:117 -> 2364.00
16:29:01:117 -> 2465.00
16:29:01:117 -> 2383.00
16:29:01:117 -> 2453.00
16:29:01:117 -> 2495.00
16:29:01:117 -> 2565.00
16:29:01:117 -> 2611.00
16:29:01:117 -> 2601.00
16:29:01:117 -> 2559.00
16:29:01:117 -> 2568.00
16:29:01:117 -> 2493.00
16:29:01:117 -> 2493.00
16:29:01:117 -> 2421.00
16:29:01:117 -> 2505.00
16:29:01:117 -> 2518.00
16:29:01:117 -> 2488.00
16:29:01:117 -> 2497.00
16:29:01:117 -> 2384.00
16:29:01:117 -> 2424.00
16:29:01:117 -> 2425.00
16:29:01:117 -> 2481.00
16:29:01:117 -> 2521.00
16:29:01:117 -> 2481.00
16:29:01:117 -> 2511.00
16:29:01:117 -> 2491.00
16:29:01:117 -> 2416.00
16:29:01:117 -> 2389.00
16:29:01:117 -> 2469.00
16:29:01:117 -> 2406.00
16:29:01:117 -> 2263.00
16:29:01:128 -> 2367.00
16:29:01:128 -> 2431.00
16:29:01:128 -> 2496.00
16:29:01:128 -> 2346.00
16:29:01:128 -> 2346.00
16:29:01:128 -> 2156.00
16:29:01:128 -> 2402.00
16:29:01:128 -> 2520.00
16:29:01:128 -> 2590.00
16:29:01:128 -> 2655.00
16:29:01:128 -> 2644.00
16:29:01:128 -> 2666.00
16:29:01:128 -> 2474.00
16:29:01:128 -> 2439.00
16:29:01:128 -> 2290.00
16:29:01:128 -> 2432.00
16:29:01:128 -> 2502.00
16:29:01:128 -> 2459.00
16:29:01:128 -> 2489.00
16:29:01:128 -> 2636.00
16:29:01:128 -> 2471.00
16:29:01:128 -> 2499.00
16:29:01:128 -> 2516.00
16:29:01:128 -> 2644.00
16:29:01:128 -> 2523.00
16:29:01:128 -> 2452.00
16:29:01:128 -> 2432.00
16:29:01:128 -> 2408.00
16:29:01:128 -> 2382.00
16:29:01:128 -> 2429.00
16:29:01:128 -> 2515.00
16:29:01:128 -> 2464.00
16:29:01:128 -> 2389.00
16:29:01:128 -> 2373.00
16:29:01:128 -> 2401.00
16:29:01:128 -> 2472.00
16:29:01:128 -> 2463.00
16:29:01:128 -> 2429.00
16:29:01:128 -> 2453.00
16:29:01:128 -> 2459.00
16:29:01:143 -> 2384.00
16:29:01:143 -> 2410.00
16:29:01:143 -> 2534.00
16:29:01:143 -> 2426.00
16:29:01:143 -> 2422.00
16:29:01:143 -> 2567.00
16:29:01:143 -> 2634.00
16:29:01:143 -> 2623.00
16:29:01:143 -> 2582.00
16:29:01:143 -> 2596.00
16:29:01:143 -> 2522.00
16:29:01:143 -> 2478.00
16:29:01:143 -> 2453.00
16:29:01:143 -> 2422.00
16:29:01:143 -> 2445.00
16:29:01:143 -> 2347.00
16:29:01:143 -> 2326.00
16:29:01:143 -> 2298.00
16:29:01:150 -> 2390.00
16:29:01:150 -> 2548.00
16:29:01:150 -> 2624.00
16:29:01:150 -> 2560.00
16:29:01:162 -> 2380.00
16:29:01:162 -> 2403.00
16:29:01:162 -> 2213.00
16:29:01:162 -> 2306.00
16:29:01:162 -> 2610.00
16:29:01:162 -> 2669.00
16:29:01:162 -> 2544.00
16:29:01:162 -> 2536.00
16:29:01:162 -> 2601.00
16:29:01:162 -> 2550.00
16:29:01:162 -> 2429.00
16:29:01:162 -> 2401.00
16:29:01:181 -> 2504.00
16:29:01:181 -> 2487.00
16:29:01:181 -> 2363.00
16:29:01:181 -> 2347.00
16:29:01:181 -> 2225.00
16:29:01:181 -> 2411.00
16:29:01:181 -> 2444.00
16:29:01:181 -> 2522.00
16:29:01:181 -> 2555.00
16:29:01:181 -> 2583.00
16:29:01:181 -> 2575.00
16:29:01:181 -> 2600.00
16:29:01:181 -> 2587.00
16:29:01:181 -> 2557.00
16:29:01:181 -> 2514.00
16:29:01:181 -> 2463.00
16:29:01:183 -> 2388.00
16:29:01:183 -> 2383.00
16:29:01:184 -> 2436.00
16:29:01:190 -> 2380.00
16:29:01:190 -> 2429.00
16:29:01:198 -> 2395.00
16:29:01:198 -> 2468.00
16:29:01:198 -> 2539.00
16:29:01:198 -> 2522.00
16:29:01:198 -> 2536.00
16:29:01:198 -> 2516.00
16:29:01:198 -> 2463.00
16:29:01:198 -> 2431.00
16:29:01:198 -> 2401.00
16:29:01:212 -> 2345.00
16:29:01:212 -> 2392.00
16:29:01:212 -> 2466.00
16:29:01:212 -> 2433.00
16:29:01:212 -> 2426.00
16:29:01:212 -> 2491.00
16:29:01:212 -> 2454.00
16:29:01:212 -> 2481.00
16:29:01:212 -> 2449.00
16:29:01:212 -> 2556.00
16:29:01:212 -> 2561.00
16:29:01:212 -> 2527.00
16:29:01:214 -> 2408.00
16:29:01:214 -> 2378.00
16:29:01:215 -> 2424.00
16:29:01:216 -> 2430.00
16:29:01:218 -> 2319.00
16:29:01:219 -> 2415.00
16:29:01:220 -> 2435.00
16:29:01:221 -> 2523.00
16:29:01:222 -> 2568.00
16:29:01:227 -> 2427.00
16:29:01:227 -> 2469.00
16:29:01:227 -> 2428.00
16:29:01:227 -> 2439.00
16:29:01:231 -> 2491.00
16:29:01:231 -> 2394.00
16:29:01:231 -> 2361.00
16:29:01:234 -> 2451.00
16:29:01:235 -> 2528.00
16:29:01:235 -> 2548.00
16:29:01:236 -> 2537.00
16:29:01:237 -> 2477.00
16:29:01:244 -> 2524.00
16:29:01:244 -> 2456.00
16:29:01:244 -> 2401.00
16:29:01:244 -> 2493.00
16:29:01:244 -> 2372.00
16:29:01:245 -> 2380.00
16:29:01:245 -> 2367.00
16:29:01:246 -> 2449.00
16:29:01:247 -> 2518.00
16:29:01:249 -> 2468.00
16:29:01:250 -> 2550.00
16:29:01:251 -> 2541.00
16:29:01:252 -> 2516.00
16:29:01:255 -> 2516.00
16:29:01:255 -> 2504.00
16:29:01:256 -> 2526.00
16:29:01:258 -> 2461.00
16:29:01:259 -> 2400.00
16:29:01:259 -> 2473.00
16:29:01:265 -> 2455.00
16:29:01:265 -> 2379.00
16:29:01:265 -> 2389.00
16:29:01:265 -> 2479.00
16:29:01:265 -> 2376.00
16:29:01:266 -> 2341.00
16:29:01:268 -> 2416.00
16:29:01:269 -> 2397.00
16:29:01:272 -> 2395.00
16:29:01:275 -> 2520.00
16:29:01:275 -> 2511.00
16:29:01:275 -> 2591.00
16:29:01:275 -> 2645.00
16:29:01:276 -> 2580.00
16:29:01:277 -> 2434.00
16:29:01:278 -> 2427.00
16:29:01:280 -> 2458.00
16:29:01:281 -> 2386.00
16:29:01:282 -> 2445.00
16:29:01:283 -> 2395.00
16:29:01:284 -> 2460.00
16:29:01:286 -> 2505.00
16:29:01:287 -> 2542.00
16:29:01:288 -> 2529.00
16:29:01:289 -> 2453.00
16:29:01:290 -> 2489.00
16:29:01:291 -> 2509.00
16:29:01:293 -> 2513.00
16:29:01:294 -> 2396.00
16:29:01:295 -> 2431.00
16:29:01:296 -> 2472.00
16:29:01:297 -> 2473.00
16:29:01:299 -> 2390.00
16:29:01:300 -> 2402.00
16:29:01:301 -> 2441.00
16:29:01:302 -> 2439.00
16:29:01:303 -> 2365.00
16:29:01:305 -> 2396.00
16:29:01:306 -> 2367.00
16:29:01:307 -> 2460.00
16:29:01:308 -> 2605.00
16:29:01:309 -> 2463.00
16:29:01:310 -> 2398.00
16:29:01:312 -> 2467.00
16:29:01:313 -> 2496.00
16:29:01:314 -> 2476.00
16:29:01:315 -> 2445.00
16:29:01:316 -> 2436.00
16:29:01:318 -> 2523.00
16:29:01:319 -> 2562.00
16:29:01:320 -> 2594.00
16:29:01:321 -> 2492.00
16:29:01:322 -> 2393.00
16:29:01:325 -> 2378.00
16:29:01:325 -> 2431.00
16:29:01:326 -> 2543.00
16:29:01:327 -> 2526.00
16:29:01:328 -> 2467.00
16:29:01:329 -> 2410.00
16:29:01:331 -> 2403.00
16:29:01:334 -> 2401.00
16:29:01:334 -> 2403.00
16:29:01:336 -> 2339.00
16:29:01:336 -> 2478.00
16:29:01:341 -> 2571.00
16:29:01:341 -> 2505.00
16:29:01:341 -> 2392.00
16:29:01:341 -> 2431.00
16:29:01:346 -> 2505.00
16:29:01:346 -> 2401.00
16:29:01:346 -> 2358.00
16:29:01:346 -> 2368.00
16:29:01:351 -> 2506.00
16:29:01:351 -> 2623.00
16:29:01:351 -> 2576.00
16:29:01:351 -> 2461.00
16:29:01:351 -> 2423.00
16:29:01:354 -> 2469.00
16:29:01:354 -> 2445.00
16:29:01:359 -> 2351.00
16:29:01:359 -> 2369.00
16:29:01:359 -> 2344.00
16:29:01:359 -> 2401.00
16:29:01:404 -> 2450.00
16:29:01:404 -> 2523.00
16:29:01:404 -> 2530.00
16:29:01:404 -> 2489.00
16:29:01:404 -> 2429.00
16:29:01:404 -> 2467.00
16:29:01:404 -> 2534.00
16:29:01:404 -> 2657.00
16:29:01:404 -> 2478.00
16:29:01:404 -> 2506.00
16:29:01:404 -> 2510.00
16:29:01:404 -> 2531.00
16:29:01:404 -> 2454.00
16:29:01:404 -> 2342.00
16:29:01:404 -> 2378.00
16:29:01:404 -> 2484.00
16:29:01:404 -> 2516.00
16:29:01:404 -> 2465.00
16:29:01:404 -> 2429.00
16:29:01:404 -> 2417.00
16:29:01:404 -> 2398.00
16:29:01:404 -> 2420.00
16:29:01:404 -> 2426.00
16:29:01:404 -> 2352.00
16:29:01:404 -> 2277.00
16:29:01:404 -> 2475.00
16:29:01:418 -> 2527.00
16:29:01:418 -> 2314.00
16:29:01:418 -> 2399.00
16:29:01:418 -> 2609.00
16:29:01:418 -> 2651.00
16:29:01:418 -> 2569.00
16:29:01:418 -> 2527.00
16:29:01:418 -> 2514.00
16:29:01:418 -> 2513.00
16:29:01:418 -> 2469.00
16:29:01:418 -> 2362.00
16:29:01:418 -> 2395.00
16:29:01:418 -> 2398.00
16:29:01:418 -> 2466.00
16:29:01:418 -> 2483.00
16:29:01:418 -> 2280.00
16:29:01:418 -> 2410.00
16:29:01:418 -> 2400.00
16:29:01:418 -> 2551.00
16:29:01:418 -> 2576.00
16:29:01:418 -> 2500.00
16:29:01:418 -> 2439.00
16:29:01:418 -> 2553.00
16:29:01:418 -> 2529.00
16:29:01:433 -> 2492.00
16:29:01:433 -> 2484.00
16:29:01:433 -> 2509.00
16:29:01:433 -> 2459.00
16:29:01:433 -> 2369.00
16:29:01:433 -> 2397.00
16:29:01:433 -> 2386.00
16:29:01:433 -> 2352.00
16:29:01:433 -> 2370.00
16:29:01:433 -> 2444.00
16:29:01:433 -> 2427.00
16:29:01:433 -> 2359.00
16:29:01:433 -> 2378.00
16:29:01:443 -> 2574.00
16:29:01:443 -> 2519.00
16:29:01:443 -> 2513.00
16:29:01:443 -> 2504.00
16:29:01:443 -> 2427.00
16:29:01:443 -> 2398.00
16:29:01:443 -> 2344.00
16:29:01:443 -> 2320.00
16:29:01:465 -> 2381.00
16:29:01:465 -> 2448.00
16:29:01:465 -> 2475.00
16:29:01:465 -> 2469.00
16:29:01:465 -> 2458.00
16:29:01:465 -> 2638.00
16:29:01:465 -> 2684.00
16:29:01:465 -> 2551.00
16:29:01:465 -> 2495.00
16:29:01:465 -> 2444.00
16:29:01:465 -> 2463.00
16:29:01:465 -> 2488.00
16:29:01:465 -> 2462.00
16:29:01:465 -> 2403.00
16:29:01:465 -> 2442.00
16:29:01:465 -> 2575.00
16:29:01:465 -> 2479.00
16:29:01:465 -> 2437.00
16:29:01:497 -> 2447.00
16:29:01:497 -> 2446.00
16:29:01:497 -> 2493.00
16:29:01:497 -> 2466.00
16:29:01:497 -> 2483.00
16:29:01:497 -> 2371.00
16:29:01:497 -> 2383.00
16:29:01:497 -> 2461.00
16:29:01:497 -> 2459.00
16:29:01:497 -> 2473.00
16:29:01:497 -> 2459.00
16:29:01:497 -> 2471.00
16:29:01:497 -> 2431.00
16:29:01:501 -> 2285.00
16:29:01:501 -> 2365.00
16:29:01:501 -> 2530.00
16:29:01:501 -> 2666.00
16:29:01:501 -> 2433.00
16:29:01:501 -> 2418.00
16:29:01:501 -> 2498.00
16:29:01:501 -> 2486.00
16:29:01:501 -> 2368.00
16:29:01:501 -> 2470.00
16:29:01:501 -> 2428.00
16:29:01:501 -> 2555.00
16:29:01:501 -> 2653.00
16:29:01:501 -> 2544.00
16:29:01:501 -> 2520.00
16:29:01:501 -> 2419.00
16:29:01:501 -> 2334.00
16:29:01:503 -> 2274.00
16:29:01:503 -> 2461.00
16:29:01:505 -> 2485.00
16:29:01:505 -> 2478.00
16:29:01:508 -> 2425.00
16:29:01:508 -> 2474.00
16:29:01:511 -> 2523.00
16:29:01:511 -> 2586.00
16:29:01:511 -> 2546.00
16:29:01:512 -> 2506.00
16:29:01:513 -> 2358.00
16:29:01:514 -> 2397.00
16:29:01:522 -> 2401.00
16:29:01:522 -> 2405.00
16:29:01:522 -> 2402.00
16:29:01:522 -> 2386.00
16:29:01:522 -> 2457.00
16:29:01:522 -> 2460.00
16:29:01:522 -> 2380.00
16:29:01:525 -> 2311.00
16:29:01:525 -> 2275.00
16:29:01:528 -> 2233.00
16:29:01:528 -> 2394.00
16:29:01:529 -> 2466.00
16:29:01:530 -> 2535.00
16:29:01:531 -> 2557.00
16:29:01:532 -> 2585.00
16:29:01:533 -> 2662.00
16:29:01:534 -> 2641.00
16:29:01:535 -> 2532.00
16:29:01:537 -> 2455.00
16:29:01:538 -> 2433.00
16:29:01:540 -> 2413.00
16:29:01:540 -> 2395.00
16:29:01:541 -> 2473.00
16:29:01:543 -> 2323.00
16:29:01:544 -> 2489.00
16:29:01:545 -> 2488.00
16:29:01:546 -> 2488.00
16:29:01:547 -> 2461.00
16:29:01:548 -> 2432.00
16:29:01:550 -> 2595.00
16:29:01:551 -> 2601.00
16:29:01:552 -> 2556.00
16:29:01:557 -> 2446.00
16:29:01:557 -> 2430.00
16:29:01:557 -> 2444.00
16:29:01:557 -> 2525.00
16:29:01:558 -> 2468.00
16:29:01:559 -> 2501.00
16:29:01:560 -> 2538.00
16:29:01:562 -> 2250.00
16:29:01:563 -> 2323.00
16:29:01:564 -> 2443.00
16:29:01:566 -> 2354.00
16:29:01:566 -> 2409.00
16:29:01:568 -> 2382.00
16:29:01:574 -> 2468.00
16:29:01:578 -> 2467.00
16:29:01:578 -> 2491.00
16:29:01:578 -> 2451.00
16:29:01:578 -> 2464.00
16:29:01:578 -> 2526.00
16:29:01:578 -> 2437.00
16:29:01:578 -> 2270.00
16:29:01:582 -> 2472.00
16:29:01:582 -> 2533.00
16:29:01:582 -> 2462.00
16:29:01:583 -> 2367.00
16:29:01:583 -> 2413.00
16:29:01:589 -> 2502.00
16:29:01:589 -> 2504.00
16:29:01:589 -> 2550.00
16:29:01:589 -> 2491.00
16:29:01:589 -> 2562.00
16:29:01:598 -> 2559.00
16:29:01:598 -> 2462.00
16:29:01:598 -> 2420.00
16:29:01:598 -> 2465.00
16:29:01:598 -> 2460.00
16:29:01:598 -> 2416.00
16:29:01:598 -> 2395.00
16:29:01:606 -> 2414.00
16:29:01:606 -> 2525.00
16:29:01:606 -> 2547.00
16:29:01:606 -> 2434.00
16:29:01:606 -> 2415.00
16:29:01:606 -> 2448.00
16:29:01:606 -> 2466.00
16:29:01:608 -> 2418.00
16:29:01:608 -> 2392.00
16:29:01:638 -> 2479.00
16:29:01:638 -> 2359.00
16:29:01:639 -> 2350.00
16:29:01:639 -> 2310.00
16:29:01:639 -> 2345.00
16:29:01:639 -> 2319.00
16:29:01:639 -> 2464.00
16:29:01:639 -> 2469.00
16:29:01:639 -> 2594.00
16:29:01:639 -> 2611.00
16:29:01:639 -> 2511.00
16:29:01:639 -> 2588.00
16:29:01:639 -> 2483.00
16:29:01:639 -> 2434.00
16:29:01:639 -> 2310.00
16:29:01:639 -> 2186.00
16:29:01:639 -> 2393.00
16:29:01:639 -> 2465.00
16:29:01:639 -> 2598.00
16:29:01:639 -> 2714.00
16:29:01:639 -> 2674.00
16:29:01:639 -> 2575.00
16:29:01:639 -> 2527.00
16:29:01:639 -> 2486.00
16:29:01:639 -> 2598.00
16:29:01:639 -> 2509.00
16:29:01:640 -> 2500.00
16:29:01:641 -> 2348.00
16:29:01:642 -> 2284.00
16:29:01:644 -> 2189.00
16:29:01:645 -> 2111.00
16:29:01:646 -> 2219.00
16:29:01:647 -> 2266.00
16:29:01:648 -> 2402.00
16:29:01:650 -> 2470.00
16:29:01:653 -> 2602.00
16:29:01:653 -> 2693.00
16:29:01:658 -> 2595.00
16:29:01:658 -> 2568.00
16:29:01:658 -> 2641.00
16:29:01:658 -> 2559.00
16:29:01:659 -> 2445.00
16:29:01:660 -> 2389.00
16:29:01:661 -> 2498.00
16:29:01:666 -> 2465.00
16:29:01:666 -> 2523.00
16:29:01:666 -> 2523.00
16:29:01:666 -> 2463.00
16:29:01:679 -> 2417.00
16:29:01:679 -> 2415.00
16:29:01:679 -> 2352.00
16:29:01:679 -> 2319.00
16:29:01:679 -> 2460.00
16:29:01:679 -> 2468.00
16:29:01:679 -> 2383.00
16:29:01:679 -> 2467.00
16:29:01:679 -> 2574.00
16:29:01:679 -> 2558.00
16:29:01:679 -> 2536.00
16:29:01:720 -> 2468.00
16:29:01:720 -> 2490.00
16:29:01:720 -> 2499.00
16:29:01:720 -> 2489.00
16:29:01:720 -> 2462.00
16:29:01:720 -> 2420.00
16:29:01:720 -> 2396.00
16:29:01:720 -> 2274.00
16:29:01:720 -> 2341.00
16:29:01:720 -> 2552.00
16:29:01:720 -> 2630.00
16:29:01:720 -> 2541.00
16:29:01:720 -> 2529.00
16:29:01:720 -> 2439.00
16:29:01:720 -> 2359.00
16:29:01:720 -> 2325.00
16:29:01:720 -> 2204.00
16:29:01:720 -> 2018.00
16:29:01:720 -> 2205.00
16:29:01:720 -> 2504.00
16:29:01:720 -> 2436.00
16:29:01:720 -> 2491.00
16:29:01:720 -> 2478.00
16:29:01:720 -> 2668.00
16:29:01:720 -> 2660.00
16:29:01:720 -> 2560.00
16:29:01:720 -> 2602.00
16:29:01:720 -> 2543.00
16:29:01:720 -> 2551.00
16:29:01:720 -> 2536.00
16:29:01:720 -> 2506.00
16:29:01:720 -> 2483.00
16:29:01:720 -> 2377.00
16:29:01:720 -> 2362.00
16:29:01:720 -> 2367.00
16:29:01:735 -> 2406.00
16:29:01:735 -> 2475.00
16:29:01:735 -> 2461.00
16:29:01:735 -> 2583.00
16:29:01:735 -> 2629.00
16:29:01:735 -> 2507.00
16:29:01:735 -> 2401.00
16:29:01:735 -> 2382.00
16:29:01:735 -> 2322.00
16:29:01:735 -> 2297.00
16:29:01:735 -> 2293.00
16:29:01:735 -> 2304.00
16:29:01:783 -> 2466.00
16:29:01:783 -> 2697.00
16:29:01:783 -> 2610.00
16:29:01:783 -> 2481.00
16:29:01:783 -> 2454.00
16:29:01:783 -> 2486.00
16:29:01:783 -> 2433.00
16:29:01:783 -> 2457.00
16:29:01:783 -> 2362.00
16:29:01:783 -> 2404.00
16:29:01:783 -> 2456.00
16:29:01:783 -> 2465.00
16:29:01:783 -> 2324.00
16:29:01:783 -> 2390.00
16:29:01:783 -> 2395.00
16:29:01:783 -> 2368.00
16:29:01:783 -> 2320.00
16:29:01:783 -> 2492.00
16:29:01:783 -> 2749.00
16:29:01:783 -> 2667.00
16:29:01:783 -> 2353.00
16:29:01:783 -> 2309.00
16:29:01:783 -> 2436.00
16:29:01:783 -> 2398.00
16:29:01:783 -> 2467.00
16:29:01:783 -> 2452.00
16:29:01:783 -> 2511.00
16:29:01:783 -> 2395.00
16:29:01:783 -> 2435.00
16:29:01:785 -> 2465.00
16:29:01:785 -> 2409.00
16:29:01:785 -> 2278.00
16:29:01:785 -> 2420.00
16:29:01:785 -> 2610.00
16:29:01:785 -> 2626.00
16:29:01:785 -> 2613.00
16:29:01:785 -> 2494.00
16:29:01:785 -> 2507.00
16:29:01:785 -> 2476.00
16:29:01:785 -> 2312.00
16:29:01:785 -> 2368.00
16:29:01:785 -> 2328.00
16:29:01:788 -> 2355.00
16:29:01:788 -> 2252.00
16:29:01:788 -> 2403.00
16:29:01:789 -> 2446.00
16:29:01:790 -> 2401.00
16:29:01:791 -> 2473.00
16:29:01:792 -> 2450.00
16:29:01:815 -> 2683.00
16:29:01:815 -> 2585.00
16:29:01:815 -> 2577.00
16:29:01:815 -> 2639.00
16:29:01:815 -> 2677.00
16:29:01:815 -> 2543.00
16:29:01:815 -> 2517.00
16:29:01:815 -> 2427.00
16:29:01:815 -> 2352.00
16:29:01:815 -> 2324.00
16:29:01:815 -> 2357.00
16:29:01:815 -> 2290.00
16:29:01:815 -> 2342.00
16:29:01:815 -> 2561.00
16:29:01:815 -> 2550.00
16:29:01:815 -> 2480.00
16:29:01:815 -> 2445.00
16:29:01:815 -> 2402.00
16:29:01:817 -> 2483.00
16:29:01:817 -> 2566.00
16:29:01:819 -> 2449.00
16:29:01:819 -> 2448.00
16:29:01:820 -> 2353.00
16:29:01:821 -> 2325.00
16:29:01:822 -> 2333.00
16:29:01:823 -> 2277.00
16:29:01:825 -> 2337.00
16:29:01:826 -> 2340.00
16:29:01:827 -> 2487.00
16:29:01:837 -> 2452.00
16:29:01:837 -> 2492.00
16:29:01:837 -> 2473.00
16:29:01:837 -> 2382.00
16:29:01:837 -> 2561.00
16:29:01:842 -> 2572.00
16:29:01:842 -> 2511.00
16:29:01:842 -> 2435.00
16:29:01:842 -> 2343.00
16:29:01:842 -> 2214.00
16:29:01:842 -> 2202.00
16:29:01:842 -> 2113.00
16:29:01:845 -> 2259.00
16:29:01:845 -> 2244.00
16:29:01:845 -> 2571.00
16:29:01:847 -> 2627.00
16:29:01:858 -> 2566.00
16:29:01:858 -> 2743.00
16:29:01:858 -> 2806.00
16:29:01:858 -> 2732.00
16:29:01:858 -> 2612.00
16:29:01:858 -> 2484.00
16:29:01:858 -> 2411.00
16:29:01:858 -> 2468.00
16:29:01:858 -> 2424.00
16:29:01:858 -> 2553.00
16:29:01:863 -> 2717.00
16:29:01:863 -> 2620.00
16:29:01:863 -> 2447.00
16:29:01:863 -> 2495.00
16:29:01:874 -> 2505.00
16:29:01:874 -> 2447.00
16:29:01:874 -> 2453.00
16:29:01:874 -> 2371.00
16:29:01:874 -> 2353.00
16:29:01:874 -> 2281.00
16:29:01:874 -> 2500.00
16:29:01:874 -> 2644.00
16:29:01:874 -> 2695.00
16:29:01:878 -> 2351.00
16:29:01:878 -> 2271.00
16:29:01:878 -> 2180.00
16:29:01:878 -> 2025.00
16:29:01:886 -> 2077.00
16:29:01:886 -> 2254.00
16:29:01:886 -> 2584.00
16:29:01:886 -> 2899.00
16:29:01:886 -> 2849.00
16:29:01:886 -> 2569.00
16:29:01:890 -> 2479.00
16:29:01:890 -> 2475.00
16:29:01:890 -> 2492.00
16:29:01:900 -> 2502.00
16:29:01:900 -> 2508.00
16:29:01:900 -> 2507.00
16:29:01:900 -> 2443.00
16:29:01:900 -> 2579.00
16:29:01:900 -> 2510.00
16:29:01:900 -> 2466.00
16:29:01:900 -> 2356.00
16:29:01:920 -> 2366.00
16:29:01:920 -> 2366.00
16:29:01:920 -> 2497.00
16:29:01:920 -> 2503.00
16:29:01:920 -> 2443.00
16:29:01:920 -> 2382.00
16:29:01:920 -> 2396.00
16:29:01:920 -> 2493.00
16:29:01:920 -> 2504.00
16:29:01:920 -> 2474.00
16:29:01:920 -> 2514.00
16:29:01:920 -> 2526.00
16:29:01:920 -> 2474.00
16:29:01:920 -> 2426.00
16:29:01:920 -> 2389.00
16:29:01:920 -> 2394.00
16:29:01:920 -> 2394.00
16:29:01:920 -> 2324.00
16:29:01:922 -> 2267.00
16:29:01:922 -> 2304.00
16:29:01:928 -> 2228.00
16:29:01:928 -> 2445.00
16:29:01:928 -> 2621.00
16:29:01:928 -> 2591.00
16:29:01:936 -> 2529.00
16:29:01:936 -> 2523.00
16:29:01:936 -> 2617.00
16:29:01:936 -> 2648.00
16:29:01:936 -> 2648.00
16:29:01:936 -> 2608.00
16:29:01:936 -> 2314.00
16:29:01:943 -> 2404.00
16:29:01:943 -> 2378.00
16:29:01:943 -> 2244.00
16:29:01:943 -> 2145.00
16:29:01:943 -> 2293.00
16:29:01:943 -> 2275.00
16:29:01:946 -> 2491.00
16:29:01:946 -> 2730.00
16:29:01:946 -> 2457.00
16:29:01:952 -> 2377.00
16:29:01:952 -> 2737.00
16:29:01:952 -> 2727.00
16:29:01:952 -> 2551.00
16:29:01:952 -> 2505.00
16:29:01:958 -> 2305.00
16:29:01:958 -> 2506.00
16:29:01:958 -> 2516.00
16:29:01:958 -> 2386.00
16:29:01:958 -> 2384.00
16:29:01:960 -> 2484.00
16:29:01:960 -> 2447.00
16:29:01:968 -> 2289.00
16:29:01:968 -> 2286.00
16:29:01:968 -> 2313.00
16:29:01:968 -> 2595.00
16:29:01:968 -> 2655.00
16:29:01:968 -> 2591.00
16:29:01:972 -> 2452.00
16:29:01:972 -> 2429.00
16:29:01:972 -> 2338.00
16:29:01:972 -> 2455.00
16:29:01:974 -> 2513.00
16:29:01:979 -> 2511.00
16:29:01:979 -> 2420.00
16:29:01:979 -> 2349.00
16:29:01:979 -> 2438.00
16:29:02:002 -> 2396.00
16:29:02:002 -> 2353.00
16:29:02:002 -> 2492.00
16:29:02:002 -> 2488.00
16:29:02:002 -> 2547.00
16:29:02:002 -> 2460.00
16:29:02:002 -> 2426.00
16:29:02:002 -> 2481.00
16:29:02:002 -> 2485.00
16:29:02:002 -> 2455.00
16:29:02:002 -> 2483.00
16:29:02:002 -> 2514.00
16:29:02:002 -> 2511.00
16:29:02:002 -> 2405.00
16:29:02:002 -> 2376.00
16:29:02:002 -> 2479.00
16:29:02:002 -> 2639.00
16:29:02:002 -> 2364.00
16:29:02:002 -> 2150.00
16:29:02:036 -> 2191.00
16:29:02:036 -> 2204.00
16:29:02:036 -> 2295.00
16:29:02:036 -> 2609.00
16:29:02:036 -> 2764.00
16:29:02:036 -> 2854.00
16:29:02:036 -> 2414.00
16:29:02:036 -> 2524.00
16:29:02:036 -> 2408.00
16:29:02:036 -> 2548.00
16:29:02:036 -> 2564.00
16:29:02:036 -> 2355.00
16:29:02:036 -> 2378.00
16:29:02:036 -> 2324.00
16:29:02:036 -> 2357.00
16:29:02:036 -> 2656.00
16:29:02:036 -> 2553.00
16:29:02:036 -> 2470.00
16:29:02:036 -> 2543.00
16:29:02:036 -> 2564.00
16:29:02:036 -> 2497.00
16:29:02:036 -> 2469.00
16:29:02:036 -> 2531.00
16:29:02:036 -> 2498.00
16:29:02:036 -> 2459.00
16:29:02:036 -> 2300.00
16:29:02:036 -> 2146.00
16:29:02:036 -> 2280.00
16:29:02:036 -> 2409.00
16:29:02:046 -> 2456.00
16:29:02:046 -> 2604.00
16:29:02:046 -> 2461.00
16:29:02:046 -> 2535.00
16:29:02:046 -> 2515.00
16:29:02:046 -> 2483.00
16:29:02:046 -> 2489.00
16:29:02:046 -> 2394.00
16:29:02:046 -> 2377.00
16:29:02:049 -> 2423.00
16:29:02:049 -> 2568.00
16:29:02:051 -> 2613.00
16:29:02:051 -> 2517.00
16:29:02:061 -> 2469.00
16:29:02:061 -> 2471.00
16:29:02:061 -> 2546.00
16:29:02:061 -> 2475.00
16:29:02:061 -> 2326.00
16:29:02:061 -> 2367.00
16:29:02:061 -> 2371.00
16:29:02:061 -> 2366.00
16:29:02:073 -> 2194.00
16:29:02:073 -> 2438.00
16:29:02:073 -> 2455.00
16:29:02:073 -> 2523.00
16:29:02:073 -> 2465.00
16:29:02:073 -> 2543.00
16:29:02:073 -> 2553.00
16:29:02:073 -> 2552.00
16:29:02:073 -> 2411.00
16:29:02:073 -> 2492.00
16:29:02:088 -> 2491.00
16:29:02:088 -> 2364.00
16:29:02:088 -> 2350.00
16:29:02:088 -> 2406.00
16:29:02:088 -> 2326.00
16:29:02:088 -> 2252.00
16:29:02:088 -> 2340.00
16:29:02:088 -> 2515.00
16:29:02:088 -> 2537.00
16:29:02:088 -> 2730.00
16:29:02:088 -> 2709.00
16:29:02:088 -> 2559.00
16:29:02:088 -> 2598.00
16:29:02:108 -> 2515.00
16:29:02:108 -> 2482.00
16:29:02:108 -> 2419.00
16:29:02:108 -> 2530.00
16:29:02:108 -> 2437.00
16:29:02:108 -> 2296.00
16:29:02:108 -> 2333.00
16:29:02:108 -> 2376.00
16:29:02:108 -> 2332.00
16:29:02:108 -> 2301.00
16:29:02:108 -> 2489.00
16:29:02:108 -> 2578.00
16:29:02:108 -> 2397.00
16:29:02:113 -> 2193.00
16:29:02:113 -> 2609.00
16:29:02:113 -> 2613.00
16:29:02:113 -> 2522.00
16:29:02:113 -> 2471.00
16:29:02:113 -> 2610.00
16:29:02:113 -> 2749.00
16:29:02:113 -> 2609.00
16:29:02:119 -> 2440.00
16:29:02:119 -> 2434.00
16:29:02:119 -> 2461.00
16:29:02:119 -> 2470.00
16:29:02:119 -> 2390.00
16:29:02:124 -> 2347.00
16:29:02:124 -> 2351.00
16:29:02:124 -> 2202.00
16:29:02:124 -> 2181.00
16:29:02:127 -> 2338.00
16:29:02:127 -> 2560.00
16:29:02:127 -> 2655.00
16:29:02:129 -> 2564.00
16:29:02:129 -> 2503.00
16:29:02:133 -> 2423.00
16:29:02:133 -> 2405.00
16:29:02:133 -> 2302.00
16:29:02:135 -> 2297.00
16:29:02:173 -> 2395.00
16:29:02:173 -> 2363.00
16:29:02:175 -> 2167.00
16:29:02:175 -> 2410.00
16:29:02:175 -> 2633.00
16:29:02:175 -> 2674.00
16:29:02:175 -> 2471.00
16:29:02:175 -> 2517.00
16:29:02:175 -> 2634.00
16:29:02:175 -> 2578.00
16:29:02:175 -> 2620.00
16:29:02:175 -> 2492.00
16:29:02:175 -> 2456.00
16:29:02:175 -> 2550.00
16:29:02:175 -> 2580.00
16:29:02:175 -> 2526.00
16:29:02:175 -> 2497.00
16:29:02:175 -> 2417.00
16:29:02:175 -> 2296.00
16:29:02:175 -> 2235.00
16:29:02:175 -> 2346.00
16:29:02:175 -> 2269.00
16:29:02:175 -> 2402.00
16:29:02:175 -> 2452.00
16:29:02:175 -> 2351.00
16:29:02:175 -> 2204.00
16:29:02:175 -> 2391.00
16:29:02:175 -> 2357.00
16:29:02:175 -> 2089.00
16:29:02:175 -> 2276.00
16:29:02:175 -> 2793.00
16:29:02:175 -> 2510.00
16:29:02:175 -> 2453.00
16:29:02:175 -> 2736.00
16:29:02:182 -> 2729.00
16:29:02:182 -> 2670.00
16:29:02:182 -> 2577.00
16:29:02:182 -> 2379.00
16:29:02:182 -> 2365.00
16:29:02:182 -> 2346.00
16:29:02:191 -> 2495.00
16:29:02:191 -> 2608.00
16:29:02:191 -> 2601.00
16:29:02:191 -> 2583.00
16:29:02:191 -> 2512.00
16:29:02:191 -> 2474.00
16:29:02:191 -> 2398.00
16:29:02:197 -> 2446.00
16:29:02:197 -> 2516.00
16:29:02:197 -> 2443.00
16:29:02:197 -> 2405.00
16:29:02:197 -> 2459.00
16:29:02:198 -> 2540.00
16:29:02:199 -> 2396.00
16:29:02:200 -> 2318.00
16:29:02:200 -> 2344.00
16:29:02:210 -> 2312.00
16:29:02:210 -> 2389.00
16:29:02:210 -> 2544.00
16:29:02:210 -> 2479.00
16:29:02:210 -> 2386.00
16:29:02:210 -> 2490.00
16:29:02:210 -> 2414.00
16:29:02:210 -> 2443.00
16:29:02:212 -> 2560.00
16:29:02:217 -> 2513.00
16:29:02:217 -> 2473.00
16:29:02:217 -> 2591.00
16:29:02:217 -> 2520.00
16:29:02:217 -> 2455.00
16:29:02:218 -> 2356.00
16:29:02:220 -> 2391.00
16:29:02:221 -> 2376.00
16:29:02:222 -> 2240.00
16:29:02:226 -> 2130.00
16:29:02:229 -> 2131.00
16:29:02:229 -> 2265.00
16:29:02:229 -> 2364.00
16:29:02:229 -> 2575.00
16:29:02:229 -> 2796.00
16:29:02:232 -> 2788.00
16:29:02:232 -> 2574.00
16:29:02:234 -> 2664.00
16:29:02:234 -> 2534.00
16:29:02:235 -> 2346.00
16:29:02:238 -> 2240.00
16:29:02:238 -> 2325.00
16:29:02:239 -> 1979.00
16:29:02:240 -> 1997.00
16:29:02:241 -> 2681.00
16:29:02:245 -> 2663.00
16:29:02:245 -> 2620.00
16:29:02:245 -> 2754.00
16:29:02:246 -> 2540.00
16:29:02:247 -> 2209.00
16:29:02:248 -> 2302.00
16:29:02:249 -> 2621.00
16:29:02:250 -> 2301.00
16:29:02:252 -> 2126.00
16:29:02:254 -> 2471.00
16:29:02:254 -> 2690.00
16:29:02:255 -> 2873.00
16:29:02:256 -> 2846.00
16:29:02:258 -> 2700.00
16:29:02:261 -> 2455.00
16:29:02:261 -> 2428.00
16:29:02:262 -> 2420.00
16:29:02:263 -> 2361.00
16:29:02:264 -> 2451.00
16:29:02:269 -> 2567.00
16:29:02:269 -> 2589.00
16:29:02:269 -> 2349.00
16:29:02:269 -> 2393.00
16:29:02:271 -> 2461.00
16:29:02:271 -> 2447.00
16:29:02:282 -> 2387.00
16:29:02:282 -> 2507.00
16:29:02:282 -> 2533.00
16:29:02:282 -> 2417.00
16:29:02:282 -> 2449.00
16:29:02:282 -> 2479.00
16:29:02:282 -> 2455.00
16:29:02:282 -> 2459.00
16:29:02:282 -> 2503.00
16:29:02:285 -> 2387.00
16:29:02:285 -> 2340.00
16:29:02:285 -> 2319.00
16:29:02:290 -> 2403.00
16:29:02:290 -> 2480.00
16:29:02:290 -> 2500.00
16:29:02:290 -> 2572.00
16:29:02:291 -> 2629.00
16:29:02:292 -> 2455.00
16:29:02:294 -> 2395.00
16:29:02:295 -> 2460.00
16:29:02:296 -> 2437.00
16:29:02:297 -> 2377.00
16:29:02:298 -> 2338.00
16:29:02:299 -> 2384.00
16:29:02:302 -> 2414.00
16:29:02:305 -> 2443.00
16:29:02:305 -> 2519.00
16:29:02:305 -> 2619.00
16:29:02:306 -> 2463.00
16:29:02:306 -> 2337.00
16:29:02:308 -> 2383.00
16:29:02:309 -> 2497.00
16:29:02:310 -> 2430.00
16:29:02:311 -> 2385.00
16:29:02:312 -> 2197.00
16:29:02:314 -> 2315.00
16:29:02:316 -> 2333.00
16:29:02:317 -> 2751.00
16:29:02:317 -> 2644.00
16:29:02:331 -> 2577.00
16:29:02:331 -> 2702.00
16:29:02:331 -> 2542.00
16:29:02:331 -> 2468.00
16:29:02:331 -> 2436.00
16:29:02:331 -> 2579.00
16:29:02:331 -> 2617.00
16:29:02:331 -> 2429.00
16:29:02:331 -> 2107.00
16:29:02:331 -> 2217.00
16:29:02:331 -> 2197.00
16:29:02:333 -> 2332.00
16:29:02:333 -> 2522.00
16:29:02:338 -> 2578.00
16:29:02:338 -> 2432.00
16:29:02:338 -> 2548.00
16:29:02:338 -> 2556.00
16:29:02:344 -> 2574.00
16:29:02:344 -> 2457.00
16:29:02:344 -> 2446.00
16:29:02:344 -> 2253.00
16:29:02:344 -> 2187.00
16:29:02:350 -> 2288.00
16:29:02:350 -> 2490.00
16:29:02:350 -> 2535.00
16:29:02:350 -> 2611.00
16:29:02:350 -> 2544.00
16:29:02:361 -> 2368.00
16:29:02:361 -> 2330.00
16:29:02:361 -> 2336.00
16:29:02:361 -> 2372.00
16:29:02:361 -> 2627.00
16:29:02:361 -> 2570.00
16:29:02:361 -> 2552.00
16:29:02:361 -> 2434.00
16:29:02:361 -> 2433.00
16:29:02:367 -> 2395.00
16:29:02:367 -> 2539.00
16:29:02:367 -> 2529.00
16:29:02:367 -> 2509.00
16:29:02:367 -> 2563.00
16:29:02:372 -> 2541.00
16:29:02:372 -> 2338.00
16:29:02:372 -> 2217.00
16:29:02:372 -> 2240.00
16:29:02:376 -> 2267.00
16:29:02:376 -> 2500.00
16:29:02:376 -> 2552.00
16:29:02:376 -> 2527.00
16:29:02:379 -> 2558.00
16:29:02:379 -> 2542.00
16:29:02:380 -> 2383.00
16:29:02:380 -> 2364.00
16:29:02:381 -> 2256.00
16:29:02:383 -> 2327.00
16:29:02:384 -> 2444.00
16:29:02:385 -> 2442.00
16:29:02:386 -> 2566.00
16:29:02:387 -> 2575.00
16:29:02:388 -> 2519.00
16:29:02:390 -> 2502.00
16:29:02:391 -> 2766.00
16:29:02:392 -> 2673.00
16:29:02:393 -> 2517.00
16:29:02:394 -> 2415.00
16:29:02:396 -> 2287.00
16:29:02:397 -> 2328.00
16:29:02:398 -> 2344.00
16:29:02:400 -> 2226.00
16:29:02:408 -> 2532.00
16:29:02:408 -> 2702.00
16:29:02:408 -> 2549.00
16:29:02:408 -> 2433.00
16:29:02:408 -> 2443.00
16:29:02:408 -> 2407.00
16:29:02:409 -> 2321.00
16:29:02:409 -> 2377.00
16:29:02:410 -> 2473.00
16:29:02:411 -> 2559.00
16:29:02:412 -> 2489.00
16:29:02:413 -> 2429.00
16:29:02:415 -> 2460.00
16:29:02:416 -> 2504.00
16:29:02:417 -> 2501.00
16:29:02:418 -> 2414.00
16:29:02:419 -> 2483.00
16:29:02:421 -> 2551.00
16:29:02:422 -> 2471.00
16:29:02:423 -> 2379.00
16:29:02:424 -> 2319.00
16:29:02:425 -> 2433.00
16:29:02:426 -> 2516.00
16:29:02:428 -> 2478.00
16:29:02:429 -> 2391.00
16:29:02:430 -> 2421.00
16:29:02:431 -> 2406.00
16:29:02:433 -> 2257.00
16:29:02:434 -> 2532.00
16:29:02:435 -> 2613.00
16:29:02:436 -> 2581.00
16:29:02:437 -> 2369.00
16:29:02:440 -> 2319.00
16:29:02:441 -> 2333.00
16:29:02:441 -> 2309.00
16:29:02:443 -> 2240.00
16:29:02:444 -> 2537.00
16:29:02:445 -> 2557.00
16:29:02:446 -> 2391.00
16:29:02:447 -> 2239.00
16:29:02:448 -> 2519.00
16:29:02:449 -> 2445.00
16:29:02:450 -> 2368.00
16:29:02:452 -> 2480.00
16:29:02:453 -> 2680.00
16:29:02:454 -> 2591.00
16:29:02:455 -> 2237.00
16:29:02:456 -> 2183.00
16:29:02:457 -> 2558.00
16:29:02:459 -> 2442.00
16:29:02:460 -> 2307.00
16:29:02:461 -> 2695.00
16:29:02:462 -> 2716.00
16:29:02:463 -> 2637.00
16:29:02:465 -> 2616.00
16:29:02:466 -> 2510.00
16:29:02:467 -> 2526.00
16:29:02:468 -> 2508.00
16:29:02:469 -> 2380.00
16:29:02:471 -> 2643.00
16:29:02:477 -> 2441.00
16:29:02:477 -> 2423.00
16:29:02:477 -> 2428.00
16:29:02:477 -> 2542.00
16:29:02:477 -> 2367.00
16:29:02:501 -> 2357.00
16:29:02:501 -> 2373.00
16:29:02:501 -> 2410.00
16:29:02:501 -> 2246.00
16:29:02:501 -> 2388.00
16:29:02:501 -> 2291.00
16:29:02:501 -> 2480.00
16:29:02:501 -> 2467.00
16:29:02:501 -> 2470.00
16:29:02:501 -> 2596.00
16:29:02:501 -> 2453.00
16:29:02:501 -> 2531.00
16:29:02:501 -> 2675.00
16:29:02:501 -> 2569.00
16:29:02:501 -> 2059.00
16:29:02:501 -> 2060.00
16:29:02:501 -> 2202.00
16:29:02:501 -> 2332.00
16:29:02:501 -> 2619.00
16:29:02:501 -> 2471.00
16:29:02:510 -> 2793.00
16:29:02:510 -> 2677.00
16:29:02:510 -> 2592.00
16:29:02:510 -> 2506.00
16:29:02:510 -> 2431.00
16:29:02:510 -> 2435.00
16:29:02:510 -> 2480.00
16:29:02:510 -> 2515.00
16:29:02:517 -> 2570.00
16:29:02:517 -> 2639.00
16:29:02:517 -> 2545.00
16:29:02:517 -> 2443.00
16:29:02:517 -> 2417.00
16:29:02:517 -> 2496.00
16:29:02:529 -> 2537.00
16:29:02:529 -> 2498.00
16:29:02:529 -> 2428.00
16:29:02:529 -> 2284.00
16:29:02:529 -> 2231.00
16:29:02:529 -> 2241.00
16:29:02:529 -> 2286.00
16:29:02:529 -> 2486.00
16:29:02:529 -> 2471.00
16:29:02:532 -> 2508.00
16:29:02:532 -> 2567.00
16:29:02:532 -> 2447.00
16:29:02:532 -> 2449.00
16:29:02:535 -> 2426.00
16:29:02:542 -> 2335.00
16:29:02:542 -> 2306.00
16:29:02:542 -> 2338.00
16:29:02:542 -> 2622.00
16:29:02:542 -> 2746.00
16:29:02:542 -> 2527.00
16:29:02:542 -> 2223.00
16:29:02:548 -> 2123.00
16:29:02:548 -> 2302.00
16:29:02:548 -> 2703.00
16:29:02:548 -> 2733.00
16:29:02:552 -> 2552.00
16:29:02:552 -> 2458.00
16:29:02:552 -> 2401.00
16:29:02:552 -> 2437.00
16:29:02:553 -> 2292.00
16:29:02:554 -> 2168.00
16:29:02:555 -> 2071.00
16:29:02:556 -> 2445.00
16:29:02:557 -> 2859.00
16:29:02:559 -> 2693.00
16:29:02:560 -> 2558.00
16:29:02:561 -> 2583.00
16:29:02:562 -> 2434.00
16:29:02:567 -> 2426.00
16:29:02:567 -> 2457.00
16:29:02:567 -> 2344.00
16:29:02:572 -> 2484.00
16:29:02:572 -> 2329.00
16:29:02:572 -> 2384.00
16:29:02:589 -> 2371.00
16:29:02:589 -> 2350.00
16:29:02:589 -> 2312.00
16:29:02:589 -> 2432.00
16:29:02:589 -> 2405.00
16:29:02:589 -> 2279.00
16:29:02:589 -> 2499.00
16:29:02:589 -> 2730.00
16:29:02:589 -> 2690.00
16:29:02:589 -> 2622.00
16:29:02:589 -> 2511.00
16:29:02:589 -> 2410.00
16:29:02:589 -> 2348.00
16:29:02:589 -> 2437.00
16:29:02:589 -> 2464.00
16:29:02:589 -> 2476.00
16:29:02:595 -> 2452.00
16:29:02:595 -> 2450.00
16:29:02:595 -> 2479.00
16:29:02:595 -> 2476.00
16:29:02:595 -> 2431.00
16:29:02:601 -> 2472.00
16:29:02:601 -> 2455.00
16:29:02:601 -> 2474.00
16:29:02:601 -> 2435.00
16:29:02:601 -> 2307.00
16:29:02:624 -> 2345.00
16:29:02:624 -> 2561.00
16:29:02:624 -> 2375.00
16:29:02:624 -> 2382.00
16:29:02:624 -> 2465.00
16:29:02:624 -> 2399.00
16:29:02:624 -> 2312.00
16:29:02:624 -> 2323.00
16:29:02:624 -> 2417.00
16:29:02:624 -> 2501.00
16:29:02:624 -> 2383.00
16:29:02:624 -> 2481.00
16:29:02:624 -> 2482.00
16:29:02:624 -> 2460.00
16:29:02:624 -> 2559.00
16:29:02:624 -> 2598.00
16:29:02:624 -> 2413.00
16:29:02:624 -> 2233.00
16:29:02:624 -> 2322.00
16:29:02:624 -> 2594.00
16:29:02:627 -> 2372.00
16:29:02:627 -> 2381.00
16:29:02:629 -> 2474.00
16:29:02:629 -> 2600.00
16:29:02:630 -> 2702.00
16:29:02:633 -> 2647.00
16:29:02:633 -> 2593.00
16:29:02:635 -> 2555.00
16:29:02:635 -> 2381.00
16:29:02:636 -> 2398.00
16:29:02:637 -> 2500.00
16:29:02:638 -> 2436.00
16:29:02:640 -> 2328.00
16:29:02:641 -> 2348.00
16:29:02:642 -> 2437.00
16:29:02:643 -> 2357.00
16:29:02:644 -> 2252.00
16:29:02:646 -> 2185.00
16:29:02:647 -> 2227.00
16:29:02:648 -> 2058.00
16:29:02:649 -> 2276.00
16:29:02:650 -> 2922.00
16:29:02:651 -> 2787.00
16:29:02:653 -> 2573.00
16:29:02:654 -> 2382.00
16:29:02:655 -> 2563.00
16:29:02:656 -> 2571.00
16:29:02:657 -> 2562.00
16:29:02:659 -> 2522.00
16:29:02:660 -> 2564.00
16:29:02:661 -> 2445.00
16:29:02:662 -> 2432.00
16:29:02:663 -> 2205.00
16:29:02:715 -> 2164.00
16:29:02:715 -> 2287.00
16:29:02:715 -> 2610.00
16:29:02:715 -> 2539.00
16:29:02:715 -> 2474.00
16:29:02:760 -> 2409.00
16:29:02:760 -> 2509.00
16:29:02:760 -> 2703.00
16:29:02:760 -> 2536.00
16:29:02:760 -> 2415.00
16:29:02:760 -> 2450.00
16:29:02:760 -> 2444.00
16:29:02:760 -> 2395.00
16:29:02:760 -> 2417.00
16:29:02:760 -> 2415.00
16:29:02:760 -> 2403.00
16:29:02:760 -> 2398.00
16:29:02:760 -> 2453.00
16:29:02:760 -> 2404.00
16:29:02:760 -> 2451.00
16:29:02:760 -> 2447.00
16:29:02:760 -> 2507.00
16:29:02:760 -> 2475.00
16:29:02:760 -> 2331.00
16:29:02:760 -> 2323.00
16:29:02:760 -> 2326.00
16:29:02:760 -> 2497.00
16:29:02:760 -> 2514.00
16:29:02:760 -> 2112.00
16:29:02:760 -> 2240.00
16:29:02:760 -> 2712.00
16:29:02:760 -> 2409.00
16:29:02:760 -> 2264.00
16:29:02:760 -> 2482.00
16:29:02:760 -> 2761.00
16:29:02:760 -> 2389.00
16:29:02:760 -> 2373.00
16:29:02:760 -> 2383.00
16:29:02:760 -> 2371.00
16:29:02:760 -> 2521.00
16:29:02:760 -> 2584.00
16:29:02:760 -> 2517.00
16:29:02:760 -> 2113.00
16:29:02:760 -> 2370.00
16:29:02:760 -> 2616.00
16:29:02:760 -> 2617.00
16:29:02:760 -> 2575.00
16:29:02:760 -> 2594.00
16:29:02:760 -> 2375.00
16:29:02:760 -> 2389.00
16:29:02:760 -> 2361.00
16:29:02:760 -> 2349.00
16:29:02:760 -> 2440.00
16:29:02:760 -> 2340.00
16:29:02:760 -> 2355.00
16:29:02:760 -> 2697.00
16:29:02:760 -> 2662.00
16:29:02:760 -> 2372.00
16:29:02:760 -> 2409.00
16:29:02:760 -> 2266.00
16:29:02:760 -> 2393.00
16:29:02:760 -> 2395.00
16:29:02:760 -> 2297.00
16:29:02:760 -> 2639.00
16:29:02:760 -> 2504.00
16:29:02:760 -> 2439.00
16:29:02:760 -> 2568.00
16:29:02:760 -> 2479.00
16:29:02:760 -> 2457.00
16:29:02:760 -> 2544.00
16:29:02:760 -> 2551.00
16:29:02:760 -> 2472.00
16:29:02:760 -> 2518.00
16:29:02:760 -> 2676.00
16:29:02:760 -> 2447.00
16:29:02:760 -> 2458.00
16:29:02:760 -> 2446.00
16:29:02:760 -> 2457.00
16:29:02:760 -> 2500.00
16:29:02:760 -> 2442.00
16:29:02:760 -> 2417.00
16:29:02:805 -> 2521.00
16:29:02:805 -> 2321.00
16:29:02:805 -> 2266.00
16:29:02:805 -> 2239.00
16:29:02:805 -> 2411.00
16:29:02:805 -> 2719.00
16:29:02:805 -> 2478.00
16:29:02:805 -> 2139.00
16:29:02:805 -> 1980.00
16:29:02:805 -> 2206.00
16:29:02:805 -> 2238.00
16:29:02:805 -> 2166.00
16:29:02:805 -> 2327.00
16:29:02:805 -> 2756.00
16:29:02:805 -> 2685.00
16:29:02:805 -> 2724.00
16:29:02:805 -> 2658.00
16:29:02:805 -> 2551.00
16:29:02:805 -> 2668.00
16:29:02:805 -> 2409.00
16:29:02:805 -> 2313.00
16:29:02:805 -> 2421.00
16:29:02:805 -> 2609.00
16:29:02:805 -> 2587.00
16:29:02:805 -> 2578.00
16:29:02:805 -> 2285.00
16:29:02:805 -> 2356.00
16:29:02:805 -> 2608.00
16:29:02:805 -> 2348.00
16:29:02:805 -> 2183.00
16:29:02:805 -> 2148.00
16:29:02:805 -> 2381.00
16:29:02:805 -> 2785.00
16:29:02:805 -> 2682.00
16:29:02:805 -> 2396.00
16:29:02:805 -> 2576.00
16:29:02:805 -> 2553.00
16:29:02:805 -> 2307.00
16:29:02:815 -> 2127.00
16:29:02:815 -> 2113.00
16:29:02:815 -> 2267.00
16:29:02:815 -> 2517.00
16:29:02:815 -> 2454.00
16:29:02:815 -> 2833.00
16:29:02:815 -> 2840.00
16:29:02:815 -> 2543.00
16:29:02:826 -> 2578.00
16:29:02:826 -> 2622.00
16:29:02:826 -> 2591.00
16:29:02:826 -> 2455.00
16:29:02:826 -> 2378.00
16:29:02:826 -> 2302.00
16:29:02:826 -> 2294.00
16:29:02:826 -> 2325.00
16:29:02:826 -> 2441.00
16:29:02:827 -> 2541.00
16:29:02:838 -> 2541.00
16:29:02:838 -> 2362.00
16:29:02:838 -> 2377.00
16:29:02:838 -> 2251.00
16:29:02:838 -> 2446.00
16:29:02:838 -> 2394.00
16:29:02:838 -> 2356.00
16:29:02:838 -> 2370.00
16:29:02:838 -> 2561.00
16:29:02:855 -> 2406.00
16:29:02:855 -> 2400.00
16:29:02:855 -> 2625.00
16:29:02:855 -> 2543.00
16:29:02:855 -> 2419.00
16:29:02:855 -> 2430.00
16:29:02:855 -> 2610.00
16:29:02:855 -> 2553.00
16:29:02:855 -> 2515.00
16:29:02:855 -> 2557.00
16:29:02:855 -> 2531.00
16:29:02:855 -> 2626.00
16:29:02:855 -> 2459.00
16:29:02:855 -> 2388.00
16:29:02:855 -> 2362.00
16:29:02:856 -> 2410.00
16:29:02:857 -> 2524.00
16:29:02:859 -> 2279.00
16:29:02:860 -> 2287.00
16:29:02:861 -> 2362.00
16:29:02:865 -> 2345.00
16:29:02:865 -> 2477.00
16:29:02:865 -> 2727.00
16:29:02:873 -> 2426.00
16:29:02:873 -> 2401.00
16:29:02:873 -> 2325.00
16:29:02:873 -> 2376.00
16:29:02:873 -> 2099.00
16:29:02:873 -> 2126.00
16:29:02:874 -> 2415.00
16:29:02:874 -> 2316.00
16:29:02:879 -> 2616.00
16:29:02:879 -> 2797.00
16:29:02:879 -> 2642.00
16:29:02:880 -> 2579.00
16:29:02:880 -> 2522.00
16:29:02:881 -> 2617.00
16:29:02:882 -> 2445.00
16:29:02:884 -> 2389.00
16:29:02:885 -> 2483.00
16:29:02:886 -> 2513.00
16:29:02:887 -> 2431.00
16:29:02:889 -> 2462.00
16:29:02:890 -> 2394.00
16:29:02:891 -> 2395.00
16:29:02:892 -> 2368.00
16:29:02:893 -> 2327.00
16:29:02:896 -> 2382.00
16:29:02:896 -> 2377.00
16:29:02:897 -> 2393.00
16:29:02:898 -> 2724.00
16:29:02:899 -> 2235.00
16:29:02:900 -> 2370.00
16:29:02:901 -> 2494.00
16:29:02:907 -> 2663.00
16:29:02:907 -> 2542.00
16:29:02:907 -> 2455.00
16:29:02:907 -> 2431.00
16:29:02:919 -> 2306.00
16:29:02:919 -> 2335.00
16:29:02:919 -> 2423.00
16:29:02:919 -> 2290.00
16:29:02:919 -> 2431.00
16:29:02:919 -> 2610.00
16:29:02:919 -> 2648.00
16:29:02:924 -> 2524.00
16:29:02:924 -> 2302.00
16:29:02:924 -> 2430.00
16:29:02:924 -> 2460.00
16:29:02:924 -> 2394.00
16:29:02:924 -> 2297.00
16:29:02:924 -> 2343.00
16:29:02:924 -> 2495.00
16:29:02:927 -> 2579.00
16:29:02:928 -> 2537.00
16:29:02:928 -> 2586.00
16:29:02:930 -> 2586.00
16:29:02:930 -> 2330.00
16:29:02:932 -> 2198.00
16:29:02:932 -> 2251.00
16:29:02:934 -> 2635.00
16:29:02:935 -> 2788.00
16:29:02:936 -> 2505.00
16:29:02:938 -> 2561.00
16:29:02:938 -> 2507.00
16:29:02:939 -> 2393.00
16:29:02:941 -> 2290.00
16:29:02:945 -> 2334.00
16:29:02:945 -> 2279.00
16:29:02:945 -> 2329.00
16:29:02:947 -> 2450.00
16:29:02:947 -> 2487.00
16:29:02:948 -> 2458.00
16:29:02:949 -> 2619.00
16:29:02:950 -> 2532.00
16:29:02:951 -> 2407.00
16:29:02:953 -> 2354.00
16:29:02:955 -> 2378.00
16:29:02:956 -> 2361.00
16:29:02:956 -> 2393.00
16:29:02:957 -> 2383.00
16:29:02:959 -> 2357.00
16:29:02:960 -> 2417.00
16:29:02:961 -> 2479.00
16:29:02:962 -> 2345.00
16:29:02:963 -> 2363.00
16:29:02:964 -> 2375.00
16:29:02:966 -> 2358.00
16:29:02:967 -> 2138.00
16:29:02:968 -> 2170.00
16:29:02:969 -> 2596.00
16:29:02:970 -> 2938.00
16:29:02:972 -> 2670.00
16:29:02:973 -> 2485.00
16:29:02:974 -> 2602.00
16:29:02:975 -> 2549.00
16:29:02:976 -> 2570.00
16:29:02:978 -> 2304.00
16:29:02:979 -> 2127.00
16:29:02:980 -> 2214.00
16:29:02:981 -> 2588.00
16:29:02:982 -> 2385.00
16:29:02:983 -> 2691.00
16:29:02:985 -> 2685.00
16:29:02:986 -> 2660.00
16:29:02:988 -> 2591.00
16:29:02:991 -> 2505.00
16:29:02:991 -> 2417.00
16:29:02:991 -> 2407.00
16:29:02:993 -> 2409.00
16:29:02:993 -> 2474.00
16:29:02:994 -> 2057.00
16:29:02:995 -> 1987.00
16:29:02:997 -> 2240.00
16:29:02:998 -> 2262.00
