16:30:16:158 -> 2531.00
16:30:16:159 -> 2590.00
16:30:16:160 -> 2526.00
16:30:16:161 -> 2507.00
16:30:16:162 -> 2542.00
16:30:16:164 -> 2600.00
16:30:16:165 -> 2581.00
16:30:16:166 -> 2592.00
16:30:16:167 -> 2566.00
16:30:16:168 -> 2507.00
16:30:16:170 -> 2568.00
16:30:16:177 -> 2565.00
16:30:16:177 -> 2556.00
16:30:16:177 -> 2507.00
16:30:16:177 -> 2629.00
16:30:16:177 -> 2684.00
16:30:16:177 -> 2621.00
16:30:16:190 -> 2476.00
16:30:16:190 -> 2498.00
16:30:16:190 -> 2491.00
16:30:16:190 -> 2481.00
16:30:16:190 -> 2551.00
16:30:16:190 -> 2598.00
16:30:16:190 -> 2450.00
16:30:16:190 -> 2600.00
16:30:16:190 -> 2597.00
16:30:16:190 -> 2599.00
16:30:16:193 -> 2567.00
16:30:16:193 -> 2509.00
16:30:16:193 -> 2517.00
16:30:16:194 -> 2598.00
16:30:16:198 -> 2514.00
16:30:16:198 -> 2459.00
16:30:16:198 -> 2485.00
16:30:16:207 -> 2439.00
16:30:16:207 -> 2453.00
16:30:16:207 -> 2544.00
16:30:16:207 -> 2673.00
16:30:16:207 -> 2658.00
16:30:16:207 -> 2647.00
16:30:16:207 -> 2584.00
16:30:16:207 -> 2514.00
16:30:16:209 -> 2460.00
16:30:16:209 -> 2486.00
16:30:16:210 -> 2518.00
16:30:16:211 -> 2515.00
16:30:16:212 -> 2526.00
16:30:16:213 -> 2587.00
16:30:16:215 -> 2632.00
16:30:16:216 -> 2630.00
16:30:16:217 -> 2509.00
16:30:16:218 -> 2580.00
16:30:16:219 -> 2624.00
16:30:16:221 -> 2574.00
16:30:16:222 -> 2531.00
16:30:16:223 -> 2426.00
16:30:16:224 -> 2487.00
16:30:16:225 -> 2573.00
16:30:16:227 -> 2480.00
16:30:16:228 -> 2581.00
16:30:16:229 -> 2609.00
16:30:16:236 -> 2551.00
16:30:16:236 -> 2535.00
16:30:16:236 -> 2563.00
16:30:16:236 -> 2561.00
16:30:16:236 -> 2591.00
16:30:16:236 -> 2660.00
16:30:16:237 -> 2616.00
16:30:16:242 -> 2561.00
16:30:16:242 -> 2560.00
16:30:16:242 -> 2503.00
16:30:16:242 -> 2467.00
16:30:16:244 -> 2432.00
16:30:16:244 -> 2532.00
16:30:16:246 -> 2657.00
16:30:16:247 -> 2635.00
16:30:16:248 -> 2654.00
16:30:16:249 -> 2582.00
16:30:16:250 -> 2563.00
16:30:16:252 -> 2596.00
16:30:16:253 -> 2551.00
16:30:16:254 -> 2557.00
16:30:16:255 -> 2552.00
16:30:16:256 -> 2617.00
16:30:16:258 -> 2644.00
16:30:16:259 -> 2509.00
16:30:16:260 -> 2588.00
16:30:16:261 -> 2772.00
16:30:16:262 -> 2602.00
16:30:16:264 -> 2416.00
16:30:16:265 -> 2334.00
16:30:16:267 -> 2352.00
16:30:16:270 -> 2562.00
16:30:16:270 -> 2554.00
16:30:16:292 -> 2532.00
16:30:16:292 -> 2649.00
16:30:16:329 -> 2700.00
16:30:16:329 -> 2599.00
16:30:16:329 -> 2590.00
16:30:16:329 -> 2551.00
16:30:16:329 -> 2534.00
16:30:16:329 -> 2577.00
16:30:16:329 -> 2523.00
16:30:16:329 -> 2470.00
16:30:16:329 -> 2561.00
16:30:16:329 -> 2570.00
16:30:16:329 -> 2572.00
16:30:16:329 -> 2576.00
16:30:16:329 -> 2664.00
16:30:16:329 -> 2707.00
16:30:16:329 -> 2617.00
16:30:16:329 -> 2556.00
16:30:16:329 -> 2564.00
16:30:16:329 -> 2534.00
16:30:16:329 -> 2498.00
16:30:16:329 -> 2562.00
16:30:16:329 -> 2514.00
16:30:16:329 -> 2530.00
16:30:16:329 -> 2499.00
16:30:16:329 -> 2617.00
16:30:16:329 -> 2662.00
16:30:16:329 -> 2568.00
16:30:16:329 -> 2601.00
16:30:16:329 -> 2673.00
16:30:16:329 -> 2732.00
16:30:16:329 -> 2651.00
16:30:16:329 -> 2574.00
16:30:16:329 -> 2556.00
16:30:16:329 -> 2537.00
16:30:16:329 -> 2508.00
16:30:16:329 -> 2641.00
16:30:16:329 -> 2637.00
16:30:16:329 -> 2475.00
16:30:16:329 -> 2503.00
16:30:16:329 -> 2614.00
16:30:16:329 -> 2619.00
16:30:16:329 -> 2510.00
16:30:16:329 -> 2516.00
16:30:16:329 -> 2547.00
16:30:16:329 -> 2569.00
16:30:16:329 -> 2552.00
16:30:16:329 -> 2534.00
16:30:16:329 -> 2471.00
16:30:16:329 -> 2494.00
16:30:16:329 -> 2598.00
16:30:16:340 -> 2603.00
16:30:16:340 -> 2542.00
16:30:16:340 -> 2633.00
16:30:16:340 -> 2509.00
16:30:16:340 -> 2441.00
16:30:16:340 -> 2468.00
16:30:16:340 -> 2494.00
16:30:16:340 -> 2561.00
16:30:16:340 -> 2568.00
16:30:16:361 -> 2559.00
16:30:16:361 -> 2599.00
16:30:16:361 -> 2662.00
16:30:16:361 -> 2579.00
16:30:16:361 -> 2535.00
16:30:16:361 -> 2502.00
16:30:16:361 -> 2634.00
16:30:16:361 -> 2659.00
16:30:16:361 -> 2601.00
16:30:16:361 -> 2474.00
16:30:16:361 -> 2494.00
16:30:16:361 -> 2559.00
16:30:16:361 -> 2626.00
16:30:16:361 -> 2521.00
16:30:16:361 -> 2554.00
16:30:16:361 -> 2631.00
16:30:16:361 -> 2390.00
16:30:16:363 -> 2361.00
16:30:16:363 -> 2474.00
16:30:16:394 -> 2649.00
16:30:16:394 -> 2780.00
16:30:16:394 -> 2613.00
16:30:16:394 -> 2663.00
16:30:16:394 -> 2681.00
16:30:16:394 -> 2619.00
16:30:16:394 -> 2593.00
16:30:16:394 -> 2497.00
16:30:16:394 -> 2544.00
16:30:16:394 -> 2538.00
16:30:16:394 -> 2606.00
16:30:16:394 -> 2619.00
16:30:16:394 -> 2573.00
16:30:16:394 -> 2595.00
16:30:16:394 -> 2646.00
16:30:16:394 -> 2629.00
16:30:16:394 -> 2634.00
16:30:16:394 -> 2591.00
16:30:16:394 -> 2541.00
16:30:16:394 -> 2521.00
16:30:16:394 -> 2569.00
16:30:16:394 -> 2631.00
16:30:16:394 -> 2602.00
16:30:16:394 -> 2556.00
16:30:16:394 -> 2552.00
16:30:16:394 -> 2592.00
16:30:16:410 -> 2527.00
16:30:16:410 -> 2524.00
16:30:16:410 -> 2600.00
16:30:16:410 -> 2661.00
16:30:16:410 -> 2560.00
16:30:16:410 -> 2589.00
16:30:16:410 -> 2602.00
16:30:16:410 -> 2662.00
16:30:16:410 -> 2595.00
16:30:16:410 -> 2554.00
16:30:16:410 -> 2478.00
16:30:16:410 -> 2563.00
16:30:16:410 -> 2512.00
16:30:16:448 -> 2682.00
16:30:16:448 -> 2554.00
16:30:16:448 -> 2503.00
16:30:16:448 -> 2577.00
16:30:16:448 -> 2514.00
16:30:16:448 -> 2577.00
16:30:16:448 -> 2688.00
16:30:16:448 -> 2633.00
16:30:16:448 -> 2490.00
16:30:16:448 -> 2562.00
16:30:16:448 -> 2581.00
16:30:16:448 -> 2548.00
16:30:16:448 -> 2548.00
16:30:16:448 -> 2509.00
16:30:16:448 -> 2539.00
16:30:16:448 -> 2619.00
16:30:16:448 -> 2586.00
16:30:16:448 -> 2561.00
16:30:16:448 -> 2571.00
16:30:16:448 -> 2552.00
16:30:16:448 -> 2670.00
16:30:16:448 -> 2587.00
16:30:16:448 -> 2621.00
16:30:16:448 -> 2573.00
16:30:16:448 -> 2550.00
16:30:16:448 -> 2512.00
16:30:16:448 -> 2559.00
16:30:16:448 -> 2506.00
16:30:16:448 -> 2545.00
16:30:16:448 -> 2642.00
16:30:16:448 -> 2679.00
16:30:16:448 -> 2618.00
16:30:16:448 -> 2570.00
16:30:16:453 -> 2498.00
16:30:16:453 -> 2472.00
16:30:16:453 -> 2449.00
16:30:16:453 -> 2588.00
16:30:16:456 -> 2582.00
16:30:16:456 -> 2485.00
16:30:16:457 -> 2530.00
16:30:16:458 -> 2690.00
16:30:16:473 -> 2610.00
16:30:16:473 -> 2598.00
16:30:16:473 -> 2590.00
16:30:16:473 -> 2630.00
16:30:16:473 -> 2446.00
16:30:16:473 -> 2510.00
16:30:16:473 -> 2617.00
16:30:16:473 -> 2612.00
16:30:16:473 -> 2481.00
16:30:16:473 -> 2522.00
16:30:16:473 -> 2579.00
16:30:16:474 -> 2611.00
16:30:16:465 -> 2656.00
16:30:16:475 -> 2603.00
16:30:16:475 -> 2610.00
16:30:16:477 -> 2562.00
16:30:16:478 -> 2576.00
16:30:16:479 -> 2616.00
16:30:16:480 -> 2565.00
16:30:16:481 -> 2675.00
16:30:16:487 -> 2658.00
16:30:16:487 -> 2536.00
16:30:16:487 -> 2471.00
16:30:16:487 -> 2546.00
16:30:16:499 -> 2530.00
16:30:16:499 -> 2477.00
16:30:16:499 -> 2588.00
16:30:16:499 -> 2566.00
16:30:16:499 -> 2532.00
16:30:16:499 -> 2538.00
16:30:16:499 -> 2505.00
16:30:16:499 -> 2585.00
16:30:16:499 -> 2573.00
16:30:16:499 -> 2676.00
16:30:16:510 -> 2618.00
16:30:16:510 -> 2661.00
16:30:16:510 -> 2610.00
16:30:16:510 -> 2552.00
16:30:16:510 -> 2590.00
16:30:16:510 -> 2572.00
16:30:16:510 -> 2572.00
16:30:16:510 -> 2537.00
16:30:16:510 -> 2584.00
16:30:16:510 -> 2565.00
16:30:16:522 -> 2559.00
16:30:16:522 -> 2608.00
16:30:16:522 -> 2542.00
16:30:16:522 -> 2539.00
16:30:16:522 -> 2500.00
16:30:16:522 -> 2526.00
16:30:16:522 -> 2634.00
16:30:16:522 -> 2576.00
16:30:16:522 -> 2496.00
16:30:16:527 -> 2535.00
16:30:16:527 -> 2648.00
16:30:16:527 -> 2625.00
16:30:16:527 -> 2590.00
16:30:16:536 -> 2534.00
16:30:16:536 -> 2591.00
16:30:16:536 -> 2582.00
16:30:16:536 -> 2428.00
16:30:16:536 -> 2518.00
16:30:16:536 -> 2509.00
16:30:16:536 -> 2535.00
16:30:16:536 -> 2585.00
16:30:16:540 -> 2591.00
16:30:16:540 -> 2484.00
16:30:16:540 -> 2627.00
16:30:16:540 -> 2647.00
16:30:16:541 -> 2663.00
16:30:16:544 -> 2591.00
16:30:16:544 -> 2630.00
16:30:16:545 -> 2632.00
16:30:16:545 -> 2547.00
16:30:16:547 -> 2556.00
16:30:16:575 -> 2533.00
16:30:16:575 -> 2574.00
16:30:16:575 -> 2522.00
16:30:16:575 -> 2497.00
16:30:16:575 -> 2652.00
16:30:16:575 -> 2620.00
16:30:16:576 -> 2607.00
16:30:16:576 -> 2614.00
16:30:16:576 -> 2641.00
16:30:16:576 -> 2661.00
16:30:16:576 -> 2540.00
16:30:16:576 -> 2538.00
16:30:16:576 -> 2586.00
16:30:16:576 -> 2539.00
16:30:16:576 -> 2538.00
16:30:16:576 -> 2473.00
16:30:16:576 -> 2536.00
16:30:16:576 -> 2625.00
16:30:16:576 -> 2571.00
16:30:16:576 -> 2595.00
16:30:16:576 -> 2598.00
16:30:16:576 -> 2608.00
16:30:16:576 -> 2538.00
16:30:16:576 -> 2549.00
16:30:16:579 -> 2542.00
16:30:16:579 -> 2594.00
16:30:16:616 -> 2590.00
16:30:16:616 -> 2548.00
16:30:16:616 -> 2663.00
16:30:16:616 -> 2555.00
16:30:16:616 -> 2572.00
16:30:16:616 -> 2479.00
16:30:16:616 -> 2448.00
16:30:16:616 -> 2619.00
16:30:16:616 -> 2677.00
16:30:16:616 -> 2557.00
16:30:16:616 -> 2491.00
16:30:16:616 -> 2488.00
16:30:16:616 -> 2533.00
16:30:16:616 -> 2502.00
16:30:16:616 -> 2507.00
16:30:16:616 -> 2590.00
16:30:16:616 -> 2484.00
16:30:16:616 -> 2455.00
16:30:16:616 -> 2484.00
16:30:16:616 -> 2540.00
16:30:16:616 -> 2591.00
16:30:16:616 -> 2582.00
16:30:16:616 -> 2547.00
16:30:16:616 -> 2588.00
16:30:16:616 -> 2696.00
16:30:16:616 -> 2543.00
16:30:16:616 -> 2457.00
16:30:16:620 -> 2438.00
16:30:16:620 -> 2515.00
16:30:16:620 -> 2434.00
16:30:16:620 -> 2445.00
16:30:16:620 -> 2569.00
16:30:16:620 -> 2510.00
16:30:16:620 -> 2570.00
16:30:16:621 -> 2728.00
16:30:16:621 -> 2633.00
16:30:16:622 -> 2720.00
16:30:16:623 -> 2685.00
16:30:16:624 -> 2597.00
16:30:16:626 -> 2598.00
16:30:16:627 -> 2503.00
16:30:16:628 -> 2484.00
16:30:16:629 -> 2448.00
16:30:16:630 -> 2511.00
16:30:16:631 -> 2615.00
16:30:16:632 -> 2590.00
16:30:16:634 -> 2611.00
16:30:16:635 -> 2668.00
16:30:16:636 -> 2589.00
16:30:16:637 -> 2516.00
16:30:16:638 -> 2624.00
16:30:16:640 -> 2603.00
16:30:16:641 -> 2581.00
16:30:16:642 -> 2593.00
16:30:16:643 -> 2467.00
16:30:16:644 -> 2554.00
16:30:16:645 -> 2526.00
16:30:16:647 -> 2470.00
16:30:16:648 -> 2524.00
16:30:16:649 -> 2564.00
16:30:16:650 -> 2580.00
16:30:16:651 -> 2612.00
16:30:16:653 -> 2577.00
16:30:16:654 -> 2487.00
16:30:16:655 -> 2569.00
16:30:16:656 -> 2569.00
16:30:16:657 -> 2580.00
16:30:16:659 -> 2598.00
16:30:16:660 -> 2605.00
16:30:16:661 -> 2517.00
16:30:16:662 -> 2586.00
16:30:16:663 -> 2617.00
16:30:16:664 -> 2601.00
16:30:16:666 -> 2577.00
16:30:16:667 -> 2625.00
16:30:16:669 -> 2711.00
16:30:16:670 -> 2535.00
16:30:16:670 -> 2542.00
16:30:16:672 -> 2557.00
16:30:16:673 -> 2586.00
16:30:16:674 -> 2538.00
16:30:16:675 -> 2557.00
16:30:16:676 -> 2612.00
16:30:16:678 -> 2610.00
16:30:16:679 -> 2554.00
16:30:16:680 -> 2572.00
16:30:16:681 -> 2548.00
16:30:16:682 -> 2574.00
16:30:16:684 -> 2540.00
16:30:16:685 -> 2580.00
16:30:16:686 -> 2590.00
16:30:16:687 -> 2520.00
16:30:16:688 -> 2564.00
16:30:16:690 -> 2633.00
16:30:16:691 -> 2527.00
16:30:16:692 -> 2602.00
16:30:16:693 -> 2628.00
16:30:16:694 -> 2693.00
16:30:16:695 -> 2655.00
16:30:16:697 -> 2598.00
16:30:16:698 -> 2621.00
16:30:16:699 -> 2559.00
16:30:16:700 -> 2541.00
16:30:16:701 -> 2497.00
16:30:16:703 -> 2488.00
16:30:16:704 -> 2570.00
16:30:16:705 -> 2588.00
16:30:16:706 -> 2555.00
16:30:16:707 -> 2457.00
16:30:16:709 -> 2491.00
16:30:16:710 -> 2568.00
16:30:16:711 -> 2627.00
16:30:16:712 -> 2676.00
16:30:16:713 -> 2619.00
16:30:16:715 -> 2559.00
16:30:16:716 -> 2574.00
16:30:16:717 -> 2587.00
16:30:16:718 -> 2603.00
16:30:16:719 -> 2619.00
16:30:16:721 -> 2530.00
16:30:16:722 -> 2646.00
16:30:16:723 -> 2664.00
16:30:16:724 -> 2555.00
16:30:16:725 -> 2566.00
16:30:16:726 -> 2590.00
16:30:16:728 -> 2523.00
16:30:16:729 -> 2481.00
16:30:16:730 -> 2490.00
16:30:16:731 -> 2587.00
16:30:16:732 -> 2644.00
16:30:16:734 -> 2612.00
16:30:16:735 -> 2611.00
16:30:16:736 -> 2610.00
16:30:16:738 -> 2522.00
16:30:16:740 -> 2519.00
16:30:16:740 -> 2594.00
16:30:16:741 -> 2640.00
16:30:16:742 -> 2523.00
16:30:16:743 -> 2495.00
16:30:16:744 -> 2539.00
16:30:16:745 -> 2592.00
16:30:16:747 -> 2575.00
16:30:16:751 -> 2563.00
16:30:16:751 -> 2542.00
16:30:16:751 -> 2561.00
16:30:16:754 -> 2733.00
16:30:16:754 -> 2587.00
16:30:16:754 -> 2588.00
16:30:16:756 -> 2673.00
16:30:16:781 -> 2592.00
16:30:16:781 -> 2550.00
16:30:16:781 -> 2533.00
16:30:16:781 -> 2666.00
16:30:16:781 -> 2747.00
16:30:16:781 -> 2646.00
16:30:16:781 -> 2627.00
16:30:16:781 -> 2565.00
16:30:16:781 -> 2483.00
16:30:16:781 -> 2444.00
16:30:16:781 -> 2622.00
16:30:16:781 -> 2664.00
16:30:16:781 -> 2662.00
16:30:16:781 -> 2610.00
16:30:16:781 -> 2660.00
16:30:16:781 -> 2542.00
16:30:16:781 -> 2548.00
16:30:16:781 -> 2558.00
16:30:16:781 -> 2644.00
16:30:16:781 -> 2652.00
16:30:16:783 -> 2548.00
16:30:16:783 -> 2636.00
16:30:16:783 -> 2628.00
16:30:16:787 -> 2562.00
16:30:16:793 -> 2608.00
16:30:16:793 -> 2560.00
16:30:16:793 -> 2529.00
16:30:16:793 -> 2603.00
16:30:16:793 -> 2599.00
16:30:16:794 -> 2531.00
16:30:16:794 -> 2518.00
16:30:16:794 -> 2578.00
16:30:16:797 -> 2651.00
16:30:16:797 -> 2649.00
16:30:16:799 -> 2590.00
16:30:16:799 -> 2615.00
16:30:16:811 -> 2613.00
16:30:16:811 -> 2527.00
16:30:16:811 -> 2496.00
16:30:16:811 -> 2556.00
16:30:16:811 -> 2628.00
16:30:16:811 -> 2594.00
16:30:16:811 -> 2503.00
16:30:16:811 -> 2619.00
16:30:16:811 -> 2608.00
16:30:16:836 -> 2634.00
16:30:16:836 -> 2497.00
16:30:16:836 -> 2573.00
16:30:16:840 -> 2545.00
16:30:16:840 -> 2511.00
16:30:16:840 -> 2663.00
16:30:16:840 -> 2670.00
16:30:16:840 -> 2607.00
16:30:16:840 -> 2554.00
16:30:16:840 -> 2517.00
16:30:16:840 -> 2508.00
16:30:16:840 -> 2493.00
16:30:16:840 -> 2465.00
16:30:16:840 -> 2489.00
16:30:16:840 -> 2592.00
16:30:16:840 -> 2629.00
16:30:16:840 -> 2602.00
16:30:16:840 -> 2560.00
16:30:16:840 -> 2651.00
16:30:16:840 -> 2655.00
16:30:16:840 -> 2512.00
16:30:16:840 -> 2648.00
16:30:16:840 -> 2635.00
16:30:16:840 -> 2651.00
16:30:16:840 -> 2621.00
16:30:16:840 -> 2639.00
16:30:16:841 -> 2612.00
16:30:16:852 -> 2548.00
16:30:16:852 -> 2542.00
16:30:16:852 -> 2566.00
16:30:16:852 -> 2576.00
16:30:16:852 -> 2565.00
16:30:16:852 -> 2581.00
16:30:16:852 -> 2600.00
16:30:16:852 -> 2513.00
16:30:16:852 -> 2478.00
16:30:16:868 -> 2494.00
16:30:16:868 -> 2576.00
16:30:16:868 -> 2578.00
16:30:16:868 -> 2604.00
16:30:16:868 -> 2668.00
16:30:16:868 -> 2627.00
16:30:16:868 -> 2552.00
16:30:16:868 -> 2610.00
16:30:16:868 -> 2628.00
16:30:16:868 -> 2639.00
16:30:16:869 -> 2655.00
16:30:16:869 -> 2647.00
16:30:16:869 -> 2634.00
16:30:16:869 -> 2577.00
16:30:16:869 -> 2633.00
16:30:16:871 -> 2705.00
16:30:16:872 -> 2546.00
16:30:16:878 -> 2519.00
16:30:16:878 -> 2587.00
16:30:16:878 -> 2606.00
16:30:16:878 -> 2586.00
16:30:16:878 -> 2621.00
16:30:16:895 -> 2576.00
16:30:16:895 -> 2494.00
16:30:16:895 -> 2500.00
16:30:16:895 -> 2611.00
16:30:16:895 -> 2530.00
16:30:16:895 -> 2579.00
16:30:16:895 -> 2565.00
16:30:16:895 -> 2613.00
16:30:16:895 -> 2590.00
16:30:16:895 -> 2612.00
16:30:16:895 -> 2562.00
16:30:16:895 -> 2566.00
16:30:16:895 -> 2583.00
16:30:16:895 -> 2562.00
16:30:16:901 -> 2637.00
16:30:16:901 -> 2675.00
16:30:16:901 -> 2608.00
16:30:16:901 -> 2561.00
16:30:16:901 -> 2524.00
16:30:16:903 -> 2618.00
16:30:16:903 -> 2529.00
16:30:16:904 -> 2439.00
16:30:16:907 -> 2460.00
16:30:16:907 -> 2433.00
16:30:16:908 -> 2477.00
16:30:16:909 -> 2560.00
16:30:16:910 -> 2554.00
16:30:16:911 -> 2578.00
16:30:16:912 -> 2607.00
16:30:16:914 -> 2542.00
16:30:16:914 -> 2636.00
16:30:16:916 -> 2615.00
16:30:16:917 -> 2554.00
16:30:16:918 -> 2544.00
16:30:16:919 -> 2603.00
16:30:16:920 -> 2509.00
16:30:16:922 -> 2583.00
16:30:16:923 -> 2579.00
16:30:16:924 -> 2549.00
16:30:16:925 -> 2526.00
16:30:16:926 -> 2597.00
16:30:16:928 -> 2634.00
16:30:16:929 -> 2622.00
16:30:16:930 -> 2724.00
16:30:16:931 -> 2673.00
16:30:16:932 -> 2678.00
16:30:16:934 -> 2638.00
16:30:16:935 -> 2609.00
16:30:16:936 -> 2558.00
16:30:16:937 -> 2604.00
16:30:16:939 -> 2711.00
16:30:16:940 -> 2643.00
16:30:16:941 -> 2646.00
16:30:16:942 -> 2737.00
16:30:16:943 -> 2666.00
16:30:16:944 -> 2593.00
16:30:16:945 -> 2587.00
16:30:16:947 -> 2434.00
16:30:16:948 -> 2537.00
16:30:16:949 -> 2682.00
16:30:16:950 -> 2630.00
16:30:16:951 -> 2584.00
16:30:16:953 -> 2510.00
16:30:16:954 -> 2509.00
16:30:16:955 -> 2617.00
16:30:16:956 -> 2495.00
16:30:16:962 -> 2559.00
16:30:16:962 -> 2571.00
16:30:16:962 -> 2629.00
16:30:16:962 -> 2637.00
16:30:16:965 -> 2653.00
16:30:16:965 -> 2657.00
16:30:16:965 -> 2683.00
16:30:16:966 -> 2707.00
16:30:16:974 -> 2509.00
16:30:16:974 -> 2558.00
16:30:16:974 -> 2634.00
16:30:16:974 -> 2594.00
16:30:16:974 -> 2577.00
16:30:16:974 -> 2613.00
16:30:16:974 -> 2539.00
16:30:16:977 -> 2552.00
16:30:16:977 -> 2598.00
16:30:16:983 -> 2667.00
16:30:16:983 -> 2639.00
16:30:16:983 -> 2622.00
16:30:16:983 -> 2557.00
16:30:16:983 -> 2561.00
16:30:16:985 -> 2517.00
16:30:16:985 -> 2550.00
16:30:16:986 -> 2636.00
16:30:16:989 -> 2623.00
16:30:16:989 -> 2610.00
16:30:16:991 -> 2602.00
16:30:16:991 -> 2611.00
16:30:17:018 -> 2614.00
16:30:17:018 -> 2591.00
16:30:17:018 -> 2632.00
16:30:17:018 -> 2582.00
16:30:17:018 -> 2509.00
16:30:17:018 -> 2582.00
16:30:17:018 -> 2583.00
16:30:17:018 -> 2635.00
16:30:17:018 -> 2630.00
16:30:17:018 -> 2501.00
16:30:17:018 -> 2507.00
16:30:17:018 -> 2571.00
16:30:17:018 -> 2607.00
16:30:17:018 -> 2544.00
16:30:17:018 -> 2521.00
16:30:17:018 -> 2553.00
16:30:17:018 -> 2553.00
16:30:17:018 -> 2489.00
16:30:17:018 -> 2570.00
16:30:17:018 -> 2624.00
16:30:17:018 -> 2628.00
16:30:17:018 -> 2630.00
16:30:17:018 -> 2664.00
16:30:17:070 -> 2665.00
16:30:17:070 -> 2617.00
16:30:17:070 -> 2715.00
16:30:17:070 -> 2594.00
16:30:17:070 -> 2610.00
16:30:17:070 -> 2634.00
16:30:17:070 -> 2595.00
16:30:17:070 -> 2531.00
16:30:17:070 -> 2560.00
16:30:17:137 -> 2483.00
16:30:17:137 -> 2565.00
16:30:17:137 -> 2632.00
16:30:17:137 -> 2604.00
16:30:17:137 -> 2571.00
16:30:17:137 -> 2612.00
16:30:17:137 -> 2611.00
16:30:17:137 -> 2560.00
16:30:17:137 -> 2639.00
16:30:17:137 -> 2703.00
16:30:17:137 -> 2644.00
16:30:17:137 -> 2572.00
16:30:17:137 -> 2534.00
16:30:17:137 -> 2571.00
16:30:17:137 -> 2456.00
16:30:17:137 -> 2542.00
16:30:17:137 -> 2574.00
16:30:17:137 -> 2506.00
16:30:17:137 -> 2476.00
16:30:17:137 -> 2574.00
16:30:17:137 -> 2655.00
16:30:17:137 -> 2659.00
16:30:17:137 -> 2667.00
16:30:17:137 -> 2588.00
16:30:17:137 -> 2662.00
16:30:17:137 -> 2665.00
16:30:17:137 -> 2451.00
16:30:17:137 -> 2555.00
16:30:17:137 -> 2732.00
16:30:17:137 -> 2662.00
16:30:17:137 -> 2664.00
16:30:17:137 -> 2595.00
16:30:17:137 -> 2468.00
16:30:17:137 -> 2421.00
16:30:17:137 -> 2374.00
16:30:17:137 -> 2636.00
16:30:17:137 -> 2612.00
16:30:17:137 -> 2567.00
16:30:17:137 -> 2775.00
16:30:17:137 -> 2716.00
16:30:17:137 -> 2580.00
16:30:17:137 -> 2589.00
16:30:17:137 -> 2614.00
16:30:17:137 -> 2678.00
16:30:17:137 -> 2590.00
16:30:17:137 -> 2551.00
16:30:17:137 -> 2573.00
16:30:17:137 -> 2592.00
16:30:17:137 -> 2677.00
16:30:17:137 -> 2605.00
16:30:17:137 -> 2602.00
16:30:17:137 -> 2625.00
16:30:17:137 -> 2604.00
16:30:17:137 -> 2585.00
16:30:17:137 -> 2587.00
16:30:17:137 -> 2636.00
16:30:17:137 -> 2713.00
16:30:17:137 -> 2643.00
16:30:17:137 -> 2501.00
16:30:17:137 -> 2539.00
16:30:17:137 -> 2657.00
16:30:17:137 -> 2571.00
16:30:17:137 -> 2509.00
16:30:17:137 -> 2638.00
16:30:17:137 -> 2490.00
16:30:17:137 -> 2516.00
16:30:17:137 -> 2510.00
16:30:17:137 -> 2576.00
16:30:17:137 -> 2575.00
16:30:17:137 -> 2574.00
16:30:17:137 -> 2580.00
16:30:17:137 -> 2592.00
16:30:17:137 -> 2606.00
16:30:17:137 -> 2559.00
16:30:17:137 -> 2666.00
16:30:17:137 -> 2674.00
16:30:17:137 -> 2662.00
16:30:17:137 -> 2591.00
16:30:17:187 -> 2480.00
16:30:17:187 -> 2593.00
16:30:17:187 -> 2520.00
16:30:17:187 -> 2437.00
16:30:17:187 -> 2440.00
16:30:17:187 -> 2747.00
16:30:17:187 -> 2686.00
16:30:17:187 -> 2546.00
16:30:17:187 -> 2653.00
16:30:17:187 -> 2674.00
16:30:17:187 -> 2683.00
16:30:17:187 -> 2617.00
16:30:17:187 -> 2662.00
16:30:17:187 -> 2746.00
16:30:17:187 -> 2459.00
16:30:17:187 -> 2485.00
16:30:17:187 -> 2685.00
16:30:17:187 -> 2713.00
16:30:17:187 -> 2720.00
16:30:17:187 -> 2631.00
16:30:17:187 -> 2641.00
16:30:17:187 -> 2571.00
16:30:17:187 -> 2572.00
16:30:17:187 -> 2570.00
16:30:17:187 -> 2622.00
16:30:17:187 -> 2561.00
16:30:17:187 -> 2459.00
16:30:17:187 -> 2573.00
16:30:17:187 -> 2706.00
16:30:17:187 -> 2731.00
16:30:17:187 -> 2651.00
16:30:17:187 -> 2508.00
16:30:17:187 -> 2555.00
16:30:17:187 -> 2743.00
16:30:17:187 -> 2661.00
16:30:17:187 -> 2608.00
16:30:17:187 -> 2542.00
16:30:17:187 -> 2477.00
16:30:17:187 -> 2393.00
16:30:17:187 -> 2558.00
16:30:17:187 -> 2522.00
16:30:17:187 -> 2513.00
16:30:17:203 -> 2651.00
16:30:17:203 -> 2567.00
16:30:17:203 -> 2651.00
16:30:17:203 -> 2626.00
16:30:17:203 -> 2533.00
16:30:17:203 -> 2590.00
16:30:17:203 -> 2664.00
16:30:17:203 -> 2674.00
16:30:17:203 -> 2699.00
16:30:17:203 -> 2638.00
16:30:17:203 -> 2511.00
16:30:17:203 -> 2545.00
16:30:17:203 -> 2660.00
16:30:17:203 -> 2580.00
16:30:17:203 -> 2530.00
16:30:17:203 -> 2549.00
16:30:17:203 -> 2561.00
16:30:17:203 -> 2665.00
16:30:17:203 -> 2724.00
16:30:17:203 -> 2613.00
16:30:17:203 -> 2513.00
16:30:17:203 -> 2663.00
16:30:17:203 -> 2689.00
16:30:17:203 -> 2589.00
16:30:17:203 -> 2751.00
16:30:17:206 -> 2709.00
16:30:17:206 -> 2506.00
16:30:17:206 -> 2616.00
16:30:17:206 -> 2609.00
16:30:17:214 -> 2565.00
16:30:17:214 -> 2489.00
16:30:17:214 -> 2536.00
16:30:17:214 -> 2590.00
16:30:17:214 -> 2594.00
16:30:17:214 -> 2487.00
16:30:17:215 -> 2595.00
16:30:17:216 -> 2604.00
16:30:17:217 -> 2607.00
16:30:17:218 -> 2619.00
16:30:17:219 -> 2568.00
16:30:17:220 -> 2555.00
16:30:17:222 -> 2619.00
16:30:17:223 -> 2649.00
16:30:17:224 -> 2621.00
16:30:17:232 -> 2620.00
16:30:17:237 -> 2660.00
16:30:17:237 -> 2576.00
16:30:17:237 -> 2416.00
16:30:17:237 -> 2553.00
16:30:17:237 -> 2740.00
16:30:17:237 -> 2713.00
16:30:17:237 -> 2567.00
16:30:17:237 -> 2421.00
16:30:17:238 -> 2653.00
16:30:17:238 -> 2674.00
16:30:17:239 -> 2687.00
16:30:17:240 -> 2619.00
16:30:17:241 -> 2721.00
16:30:17:242 -> 2675.00
16:30:17:243 -> 2558.00
16:30:17:244 -> 2563.00
16:30:17:245 -> 2529.00
16:30:17:247 -> 2530.00
16:30:17:248 -> 2574.00
16:30:17:249 -> 2517.00
16:30:17:251 -> 2492.00
16:30:17:251 -> 2490.00
16:30:17:253 -> 2411.00
16:30:17:254 -> 2563.00
16:30:17:255 -> 2563.00
16:30:17:256 -> 2543.00
16:30:17:257 -> 2536.00
16:30:17:259 -> 2565.00
16:30:17:260 -> 2713.00
16:30:17:261 -> 2581.00
16:30:17:262 -> 2535.00
16:30:17:263 -> 2492.00
16:30:17:264 -> 2518.00
16:30:17:266 -> 2538.00
16:30:17:267 -> 2663.00
16:30:17:268 -> 2703.00
16:30:17:269 -> 2632.00
16:30:17:270 -> 2568.00
16:30:17:272 -> 2624.00
16:30:17:273 -> 2597.00
16:30:17:274 -> 2643.00
16:30:17:275 -> 2676.00
16:30:17:276 -> 2617.00
16:30:17:278 -> 2615.00
16:30:17:279 -> 2591.00
16:30:17:280 -> 2671.00
16:30:17:281 -> 2686.00
16:30:17:282 -> 2635.00
16:30:17:283 -> 2436.00
16:30:17:285 -> 2424.00
16:30:17:286 -> 2581.00
16:30:17:287 -> 2610.00
16:30:17:288 -> 2612.00
16:30:17:289 -> 2557.00
16:30:17:291 -> 2442.00
16:30:17:292 -> 2641.00
16:30:17:293 -> 2623.00
16:30:17:294 -> 2579.00
16:30:17:295 -> 2643.00
16:30:17:297 -> 2714.00
16:30:17:301 -> 2732.00
16:30:17:301 -> 2601.00
16:30:17:301 -> 2538.00
16:30:17:301 -> 2577.00
16:30:17:303 -> 2598.00
16:30:17:304 -> 2593.00
16:30:17:305 -> 2626.00
16:30:17:306 -> 2634.00
16:30:17:307 -> 2656.00
16:30:17:309 -> 2684.00
16:30:17:310 -> 2617.00
16:30:17:311 -> 2571.00
16:30:17:312 -> 2592.00
16:30:17:313 -> 2593.00
16:30:17:314 -> 2539.00
16:30:17:316 -> 2603.00
16:30:17:317 -> 2622.00
16:30:17:318 -> 2557.00
16:30:17:319 -> 2473.00
16:30:17:320 -> 2593.00
16:30:17:322 -> 2657.00
16:30:17:323 -> 2612.00
16:30:17:324 -> 2627.00
16:30:17:325 -> 2438.00
16:30:17:326 -> 2466.00
16:30:17:327 -> 2491.00
16:30:17:329 -> 2507.00
16:30:17:330 -> 2660.00
16:30:17:331 -> 2528.00
16:30:17:332 -> 2540.00
16:30:17:334 -> 2574.00
16:30:17:335 -> 2691.00
16:30:17:336 -> 2675.00
16:30:17:337 -> 2673.00
16:30:17:338 -> 2649.00
16:30:17:339 -> 2624.00
16:30:17:341 -> 2579.00
16:30:17:346 -> 2603.00
16:30:17:346 -> 2625.00
16:30:17:346 -> 2659.00
16:30:17:346 -> 2541.00
16:30:17:347 -> 2643.00
16:30:17:361 -> 2667.00
16:30:17:361 -> 2509.00
16:30:17:361 -> 2472.00
16:30:17:361 -> 2593.00
16:30:17:361 -> 2604.00
16:30:17:361 -> 2528.00
16:30:17:361 -> 2592.00
16:30:17:361 -> 2562.00
16:30:17:361 -> 2604.00
16:30:17:361 -> 2629.00
16:30:17:361 -> 2707.00
16:30:17:361 -> 2709.00
16:30:17:367 -> 2582.00
16:30:17:367 -> 2732.00
16:30:17:367 -> 2515.00
16:30:17:367 -> 2512.00
16:30:17:368 -> 2432.00
16:30:17:368 -> 2619.00
16:30:17:369 -> 2744.00
16:30:17:370 -> 2589.00
16:30:17:372 -> 2582.00
16:30:17:373 -> 2591.00
16:30:17:374 -> 2633.00
16:30:17:375 -> 2614.00
16:30:17:376 -> 2544.00
16:30:17:378 -> 2489.00
16:30:17:379 -> 2680.00
16:30:17:380 -> 2663.00
16:30:17:381 -> 2542.00
16:30:17:383 -> 2652.00
16:30:17:386 -> 2680.00
16:30:17:386 -> 2628.00
16:30:17:387 -> 2644.00
16:30:17:388 -> 2583.00
16:30:17:389 -> 2580.00
16:30:17:390 -> 2606.00
16:30:17:391 -> 2605.00
16:30:17:396 -> 2568.00
16:30:17:396 -> 2561.00
16:30:17:396 -> 2617.00
16:30:17:401 -> 2601.00
16:30:17:401 -> 2566.00
16:30:17:401 -> 2666.00
16:30:17:403 -> 2646.00
16:30:17:403 -> 2606.00
16:30:17:403 -> 2610.00
16:30:17:403 -> 2543.00
16:30:17:404 -> 2556.00
16:30:17:414 -> 2529.00
16:30:17:420 -> 2549.00
16:30:17:420 -> 2499.00
16:30:17:420 -> 2531.00
16:30:17:420 -> 2513.00
16:30:17:420 -> 2573.00
16:30:17:420 -> 2629.00
16:30:17:420 -> 2591.00
16:30:17:420 -> 2586.00
16:30:17:420 -> 2545.00
16:30:17:420 -> 2637.00
16:30:17:420 -> 2533.00
16:30:17:420 -> 2624.00
16:30:17:424 -> 2590.00
16:30:17:424 -> 2683.00
16:30:17:424 -> 2465.00
16:30:17:424 -> 2539.00
16:30:17:436 -> 2656.00
16:30:17:436 -> 2641.00
16:30:17:436 -> 2601.00
16:30:17:436 -> 2618.00
16:30:17:436 -> 2587.00
16:30:17:436 -> 2551.00
16:30:17:436 -> 2570.00
16:30:17:436 -> 2586.00
16:30:17:436 -> 2504.00
16:30:17:436 -> 2469.00
16:30:17:444 -> 2597.00
16:30:17:444 -> 2595.00
16:30:17:444 -> 2654.00
16:30:17:444 -> 2619.00
16:30:17:444 -> 2614.00
16:30:17:444 -> 2620.00
16:30:17:448 -> 2593.00
16:30:17:448 -> 2558.00
16:30:17:448 -> 2497.00
16:30:17:448 -> 2573.00
16:30:17:453 -> 2589.00
16:30:17:453 -> 2619.00
16:30:17:453 -> 2612.00
16:30:17:463 -> 2625.00
16:30:17:463 -> 2599.00
16:30:17:463 -> 2667.00
16:30:17:463 -> 2669.00
16:30:17:474 -> 2650.00
16:30:17:474 -> 2588.00
16:30:17:474 -> 2577.00
16:30:17:474 -> 2517.00
16:30:17:474 -> 2508.00
16:30:17:474 -> 2442.00
16:30:17:474 -> 2459.00
16:30:17:474 -> 2493.00
16:30:17:474 -> 2542.00
16:30:17:474 -> 2631.00
16:30:17:474 -> 2632.00
16:30:17:474 -> 2711.00
16:30:17:474 -> 2569.00
16:30:17:474 -> 2579.00
16:30:17:491 -> 2518.00
16:30:17:491 -> 2590.00
16:30:17:491 -> 2685.00
16:30:17:491 -> 2606.00
16:30:17:491 -> 2555.00
16:30:17:491 -> 2654.00
16:30:17:491 -> 2758.00
16:30:17:491 -> 2861.00
16:30:17:491 -> 2639.00
16:30:17:491 -> 2564.00
16:30:17:491 -> 2571.00
16:30:17:491 -> 2599.00
16:30:17:491 -> 2597.00
16:30:17:491 -> 2571.00
16:30:17:491 -> 2580.00
16:30:17:515 -> 2665.00
16:30:17:515 -> 2665.00
16:30:17:515 -> 2655.00
16:30:17:515 -> 2587.00
16:30:17:515 -> 2544.00
16:30:17:515 -> 2635.00
16:30:17:515 -> 2636.00
16:30:17:515 -> 2623.00
16:30:17:515 -> 2688.00
16:30:17:515 -> 2589.00
16:30:17:515 -> 2580.00
16:30:17:515 -> 2580.00
16:30:17:515 -> 2550.00
16:30:17:515 -> 2534.00
16:30:17:515 -> 2616.00
16:30:17:515 -> 2578.00
16:30:17:515 -> 2584.00
16:30:17:515 -> 2541.00
16:30:17:515 -> 2535.00
16:30:17:515 -> 2655.00
16:30:17:557 -> 2670.00
16:30:17:557 -> 2581.00
16:30:17:557 -> 2595.00
16:30:17:557 -> 2606.00
16:30:17:557 -> 2487.00
16:30:17:557 -> 2529.00
16:30:17:557 -> 2729.00
16:30:17:557 -> 2540.00
16:30:17:557 -> 2551.00
16:30:17:557 -> 2538.00
16:30:17:557 -> 2551.00
16:30:17:557 -> 2548.00
16:30:17:557 -> 2555.00
16:30:17:557 -> 2533.00
16:30:17:557 -> 2558.00
16:30:17:557 -> 2601.00
16:30:17:557 -> 2552.00
16:30:17:557 -> 2560.00
16:30:17:557 -> 2621.00
16:30:17:557 -> 2566.00
16:30:17:557 -> 2587.00
16:30:17:557 -> 2602.00
16:30:17:557 -> 2595.00
16:30:17:557 -> 2541.00
16:30:17:557 -> 2515.00
16:30:17:557 -> 2624.00
16:30:17:557 -> 2655.00
16:30:17:557 -> 2703.00
16:30:17:557 -> 2584.00
16:30:17:557 -> 2571.00
16:30:17:557 -> 2573.00
16:30:17:557 -> 2563.00
16:30:17:557 -> 2595.00
16:30:17:557 -> 2626.00
16:30:17:557 -> 2613.00
16:30:17:584 -> 2560.00
16:30:17:584 -> 2508.00
16:30:17:584 -> 2547.00
16:30:17:584 -> 2573.00
16:30:17:584 -> 2706.00
16:30:17:584 -> 2527.00
16:30:17:584 -> 2562.00
16:30:17:584 -> 2658.00
16:30:17:584 -> 2556.00
16:30:17:584 -> 2534.00
16:30:17:584 -> 2600.00
16:30:17:584 -> 2670.00
16:30:17:584 -> 2705.00
16:30:17:584 -> 2584.00
16:30:17:584 -> 2612.00
16:30:17:584 -> 2589.00
16:30:17:584 -> 2616.00
16:30:17:584 -> 2575.00
16:30:17:584 -> 2534.00
16:30:17:584 -> 2581.00
16:30:17:584 -> 2560.00
16:30:17:584 -> 2549.00
16:30:17:584 -> 2647.00
16:30:17:608 -> 2716.00
16:30:17:608 -> 2577.00
16:30:17:608 -> 2471.00
16:30:17:608 -> 2463.00
16:30:17:608 -> 2547.00
16:30:17:608 -> 2535.00
16:30:17:608 -> 2501.00
16:30:17:608 -> 2621.00
16:30:17:608 -> 2584.00
16:30:17:608 -> 2590.00
16:30:17:608 -> 2572.00
16:30:17:608 -> 2481.00
16:30:17:608 -> 2594.00
16:30:17:608 -> 2711.00
16:30:17:738 -> 2632.00
16:30:17:738 -> 2584.00
16:30:17:738 -> 2580.00
16:30:17:738 -> 2609.00
16:30:17:738 -> 2624.00
16:30:17:738 -> 2599.00
16:30:17:738 -> 2587.00
16:30:17:738 -> 2602.00
16:30:17:738 -> 2612.00
16:30:17:738 -> 2649.00
16:30:17:738 -> 2617.00
16:30:17:738 -> 2643.00
16:30:17:738 -> 2644.00
16:30:17:738 -> 2712.00
16:30:17:738 -> 2594.00
16:30:17:738 -> 2603.00
16:30:17:738 -> 2643.00
16:30:17:738 -> 2645.00
16:30:17:738 -> 2475.00
16:30:17:738 -> 2499.00
16:30:17:738 -> 2575.00
16:30:17:738 -> 2546.00
16:30:17:738 -> 2505.00
16:30:17:738 -> 2569.00
16:30:17:738 -> 2610.00
16:30:17:738 -> 2599.00
16:30:17:738 -> 2618.00
16:30:17:738 -> 2654.00
16:30:17:738 -> 2609.00
16:30:17:738 -> 2584.00
16:30:17:738 -> 2649.00
16:30:17:738 -> 2644.00
16:30:17:738 -> 2615.00
16:30:17:738 -> 2671.00
16:30:17:738 -> 2636.00
16:30:17:738 -> 2650.00
16:30:17:738 -> 2601.00
16:30:17:745 -> 2552.00
16:30:17:745 -> 2538.00
16:30:17:745 -> 2642.00
16:30:17:745 -> 2472.00
16:30:17:745 -> 2485.00
16:30:17:745 -> 2517.00
16:30:17:745 -> 2588.00
16:30:17:745 -> 2580.00
16:30:17:745 -> 2515.00
16:30:17:745 -> 2518.00
16:30:17:745 -> 2637.00
16:30:17:745 -> 2775.00
16:30:17:745 -> 2721.00
16:30:17:745 -> 2661.00
16:30:17:745 -> 2530.00
16:30:17:745 -> 2580.00
16:30:17:745 -> 2658.00
16:30:17:745 -> 2578.00
16:30:17:745 -> 2639.00
16:30:17:745 -> 2478.00
16:30:17:745 -> 2568.00
16:30:17:745 -> 2659.00
16:30:17:745 -> 2668.00
16:30:17:745 -> 2613.00
16:30:17:745 -> 2552.00
16:30:17:745 -> 2613.00
16:30:17:745 -> 2599.00
16:30:17:745 -> 2594.00
16:30:17:745 -> 2618.00
16:30:17:745 -> 2632.00
16:30:17:745 -> 2647.00
16:30:17:745 -> 2668.00
16:30:17:745 -> 2634.00
16:30:17:745 -> 2679.00
16:30:17:745 -> 2577.00
16:30:17:745 -> 2617.00
16:30:17:745 -> 2636.00
16:30:17:745 -> 2614.00
16:30:17:745 -> 2588.00
16:30:17:745 -> 2602.00
16:30:17:745 -> 2643.00
16:30:17:745 -> 2634.00
16:30:17:745 -> 2638.00
16:30:17:745 -> 2595.00
16:30:17:745 -> 2619.00
16:30:17:745 -> 2654.00
16:30:17:745 -> 2572.00
16:30:17:745 -> 2526.00
16:30:17:745 -> 2565.00
16:30:17:745 -> 2569.00
16:30:17:745 -> 2703.00
16:30:17:745 -> 2610.00
16:30:17:745 -> 2642.00
16:30:17:745 -> 2591.00
16:30:17:745 -> 2585.00
16:30:17:745 -> 2583.00
16:30:17:745 -> 2623.00
16:30:17:745 -> 2614.00
16:30:17:745 -> 2523.00
16:30:17:745 -> 2571.00
16:30:17:745 -> 2699.00
16:30:17:745 -> 2636.00
16:30:17:745 -> 2633.00
16:30:17:745 -> 2619.00
16:30:17:745 -> 2618.00
16:30:17:745 -> 2642.00
16:30:17:745 -> 2540.00
16:30:17:745 -> 2496.00
16:30:17:745 -> 2572.00
16:30:17:745 -> 2714.00
16:30:17:745 -> 2633.00
16:30:17:745 -> 2521.00
16:30:17:745 -> 2612.00
16:30:17:745 -> 2556.00
16:30:17:745 -> 2581.00
16:30:17:745 -> 2618.00
16:30:17:745 -> 2585.00
16:30:17:745 -> 2540.00
16:30:17:745 -> 2641.00
16:30:17:745 -> 2634.00
16:30:17:745 -> 2621.00
16:30:17:745 -> 2698.00
16:30:17:745 -> 2509.00
16:30:17:745 -> 2575.00
16:30:17:745 -> 2600.00
16:30:17:752 -> 2613.00
16:30:17:752 -> 2664.00
16:30:17:752 -> 2590.00
16:30:17:752 -> 2578.00
16:30:17:752 -> 2614.00
16:30:17:805 -> 2600.00
16:30:17:805 -> 2604.00
16:30:17:805 -> 2652.00
16:30:17:805 -> 2648.00
16:30:17:805 -> 2711.00
16:30:17:805 -> 2667.00
16:30:17:805 -> 2645.00
16:30:17:805 -> 2603.00
16:30:17:805 -> 2632.00
16:30:17:805 -> 2619.00
16:30:17:805 -> 2512.00
16:30:17:805 -> 2504.00
16:30:17:805 -> 2568.00
16:30:17:805 -> 2580.00
16:30:17:805 -> 2597.00
16:30:17:805 -> 2604.00
16:30:17:805 -> 2684.00
16:30:17:805 -> 2678.00
16:30:17:805 -> 2633.00
16:30:17:805 -> 2580.00
16:30:17:805 -> 2604.00
16:30:17:805 -> 2612.00
16:30:17:805 -> 2610.00
16:30:17:823 -> 2656.00
16:30:17:823 -> 2679.00
16:30:17:823 -> 2596.00
16:30:17:823 -> 2596.00
16:30:17:823 -> 2616.00
16:30:17:823 -> 2660.00
16:30:17:823 -> 2629.00
16:30:17:823 -> 2581.00
16:30:17:823 -> 2543.00
16:30:17:823 -> 2538.00
16:30:17:823 -> 2640.00
16:30:17:823 -> 2581.00
16:30:17:823 -> 2537.00
16:30:17:823 -> 2641.00
16:30:17:823 -> 2570.00
16:30:17:823 -> 2565.00
16:30:17:823 -> 2598.00
16:30:17:823 -> 2554.00
16:30:17:823 -> 2570.00
16:30:17:823 -> 2634.00
16:30:17:823 -> 2778.00
16:30:17:823 -> 2622.00
16:30:17:823 -> 2473.00
16:30:17:823 -> 2482.00
16:30:17:823 -> 2520.00
16:30:17:823 -> 2517.00
16:30:17:823 -> 2511.00
16:30:17:823 -> 2586.00
16:30:17:823 -> 2632.00
16:30:17:823 -> 2716.00
16:30:17:823 -> 2688.00
16:30:17:823 -> 2676.00
16:30:17:823 -> 2536.00
16:30:17:823 -> 2606.00
16:30:17:823 -> 2608.00
16:30:17:823 -> 2657.00
16:30:17:885 -> 2629.00
16:30:17:885 -> 2587.00
16:30:17:885 -> 2578.00
16:30:17:885 -> 2608.00
16:30:17:885 -> 2710.00
16:30:17:885 -> 2554.00
16:30:17:885 -> 2556.00
16:30:17:885 -> 2530.00
16:30:17:885 -> 2604.00
16:30:17:885 -> 2652.00
16:30:17:885 -> 2623.00
16:30:17:885 -> 2670.00
16:30:17:885 -> 2607.00
16:30:17:885 -> 2559.00
16:30:17:885 -> 2532.00
16:30:17:885 -> 2625.00
16:30:17:885 -> 2574.00
16:30:17:885 -> 2627.00
16:30:17:885 -> 2600.00
16:30:17:885 -> 2547.00
16:30:17:885 -> 2536.00
16:30:17:885 -> 2580.00
16:30:17:885 -> 2538.00
16:30:17:885 -> 2588.00
16:30:17:885 -> 2686.00
16:30:17:885 -> 2706.00
16:30:17:885 -> 2615.00
16:30:17:885 -> 2590.00
16:30:17:885 -> 2599.00
16:30:17:885 -> 2560.00
16:30:17:885 -> 2566.00
16:30:17:885 -> 2588.00
16:30:17:885 -> 2642.00
16:30:17:885 -> 2639.00
16:30:17:885 -> 2645.00
16:30:17:885 -> 2682.00
16:30:17:885 -> 2613.00
16:30:17:885 -> 2681.00
16:30:17:885 -> 2580.00
16:30:17:885 -> 2599.00
16:30:17:885 -> 2609.00
16:30:17:885 -> 2583.00
16:30:17:885 -> 2623.00
16:30:17:885 -> 2585.00
16:30:17:885 -> 2601.00
16:30:17:885 -> 2637.00
16:30:17:885 -> 2621.00
16:30:17:885 -> 2624.00
16:30:17:885 -> 2638.00
16:30:17:885 -> 2604.00
16:30:17:885 -> 2603.00
16:30:17:885 -> 2577.00
16:30:17:885 -> 2593.00
16:30:17:893 -> 2520.00
16:30:17:893 -> 2670.00
16:30:17:893 -> 2681.00
16:30:17:893 -> 2629.00
16:30:17:893 -> 2615.00
16:30:17:893 -> 2621.00
16:30:17:893 -> 2662.00
16:30:17:919 -> 2598.00
16:30:17:919 -> 2591.00
16:30:17:919 -> 2547.00
16:30:17:919 -> 2590.00
16:30:17:919 -> 2545.00
16:30:17:919 -> 2602.00
16:30:17:919 -> 2574.00
16:30:17:919 -> 2550.00
16:30:17:919 -> 2587.00
16:30:17:919 -> 2634.00
16:30:17:919 -> 2636.00
16:30:17:919 -> 2593.00
16:30:17:919 -> 2592.00
16:30:17:919 -> 2553.00
16:30:17:939 -> 2524.00
16:30:17:939 -> 2594.00
16:30:17:939 -> 2562.00
16:30:17:939 -> 2594.00
16:30:17:939 -> 2590.00
16:30:17:939 -> 2618.00
16:30:17:939 -> 2609.00
16:30:17:939 -> 2628.00
16:30:17:939 -> 2619.00
16:30:17:939 -> 2590.00
16:30:17:939 -> 2640.00
16:30:17:939 -> 2637.00
16:30:17:939 -> 2560.00
16:30:17:939 -> 2562.00
16:30:17:939 -> 2585.00
16:30:17:939 -> 2673.00
16:30:17:939 -> 2627.00
16:30:17:939 -> 2643.00
16:30:17:939 -> 2672.00
16:30:17:939 -> 2597.00
16:30:17:939 -> 2550.00
16:30:17:939 -> 2653.00
16:30:17:939 -> 2645.00
16:30:17:939 -> 2664.00
16:30:17:946 -> 2673.00
16:30:17:946 -> 2646.00
16:30:17:946 -> 2639.00
16:30:17:946 -> 2650.00
16:30:17:946 -> 2597.00
16:30:17:946 -> 2552.00
16:30:17:966 -> 2560.00
16:30:17:966 -> 2633.00
16:30:17:966 -> 2492.00
16:30:17:966 -> 2543.00
16:30:17:966 -> 2579.00
16:30:17:966 -> 2550.00
16:30:17:966 -> 2447.00
16:30:17:966 -> 2583.00
16:30:17:966 -> 2621.00
16:30:17:966 -> 2624.00
16:30:17:966 -> 2622.00
16:30:17:966 -> 2684.00
16:30:17:966 -> 2683.00
16:30:17:966 -> 2619.00
16:30:17:966 -> 2599.00
16:30:17:966 -> 2641.00
16:30:17:966 -> 2664.00
16:30:17:970 -> 2610.00
16:30:17:970 -> 2591.00
16:30:17:970 -> 2662.00
16:30:17:984 -> 2706.00
16:30:17:984 -> 2578.00
16:30:17:984 -> 2531.00
16:30:17:984 -> 2594.00
16:30:17:984 -> 2618.00
16:30:17:984 -> 2586.00
16:30:17:984 -> 2572.00
16:30:17:984 -> 2551.00
16:30:17:984 -> 2576.00
16:30:17:984 -> 2538.00
16:30:17:984 -> 2567.00
16:30:18:006 -> 2642.00
16:30:18:006 -> 2680.00
16:30:18:006 -> 2632.00
16:30:18:006 -> 2646.00
16:30:18:006 -> 2632.00
16:30:18:006 -> 2673.00
16:30:18:006 -> 2649.00
16:30:18:006 -> 2613.00
16:30:18:006 -> 2628.00
16:30:18:006 -> 2582.00
16:30:18:006 -> 2573.00
16:30:18:006 -> 2526.00
16:30:18:006 -> 2518.00
16:30:18:006 -> 2543.00
16:30:18:006 -> 2532.00
16:30:18:006 -> 2581.00
16:30:18:006 -> 2630.00
16:30:18:006 -> 2593.00
16:30:18:006 -> 2619.00
16:30:18:006 -> 2689.00
16:30:18:024 -> 2727.00
16:30:18:024 -> 2675.00
16:30:18:024 -> 2646.00
16:30:18:024 -> 2592.00
16:30:18:024 -> 2613.00
16:30:18:024 -> 2628.00
16:30:18:024 -> 2616.00
16:30:18:024 -> 2547.00
16:30:18:024 -> 2601.00
16:30:18:024 -> 2608.00
16:30:18:024 -> 2599.00
16:30:18:024 -> 2644.00
16:30:18:024 -> 2644.00
16:30:18:024 -> 2583.00
16:30:18:024 -> 2530.00
16:30:18:025 -> 2633.00
16:30:18:026 -> 2604.00
16:30:18:027 -> 2580.00
16:30:18:031 -> 2589.00
16:30:18:031 -> 2633.00
16:30:18:036 -> 2649.00
16:30:18:036 -> 2670.00
16:30:18:036 -> 2646.00
16:30:18:036 -> 2651.00
16:30:18:036 -> 2612.00
16:30:18:040 -> 2588.00
16:30:18:040 -> 2647.00
16:30:18:040 -> 2628.00
16:30:18:040 -> 2673.00
16:30:18:042 -> 2640.00
16:30:18:045 -> 2570.00
16:30:18:045 -> 2586.00
16:30:18:049 -> 2525.00
16:30:18:049 -> 2502.00
16:30:18:049 -> 2615.00
16:30:18:049 -> 2614.00
16:30:18:061 -> 2656.00
16:30:18:061 -> 2668.00
16:30:18:061 -> 2643.00
16:30:18:061 -> 2563.00
16:30:18:061 -> 2608.00
16:30:18:061 -> 2602.00
16:30:18:061 -> 2679.00
16:30:18:061 -> 2691.00
16:30:18:061 -> 2658.00
16:30:18:061 -> 2679.00
16:30:18:072 -> 2621.00
16:30:18:072 -> 2595.00
16:30:18:072 -> 2619.00
16:30:18:072 -> 2633.00
16:30:18:072 -> 2559.00
16:30:18:072 -> 2588.00
16:30:18:072 -> 2641.00
16:30:18:072 -> 2559.00
16:30:18:072 -> 2593.00
16:30:18:078 -> 2583.00
16:30:18:078 -> 2612.00
16:30:18:078 -> 2592.00
16:30:18:078 -> 2701.00
16:30:18:078 -> 2688.00
16:30:18:099 -> 2567.00
16:30:18:099 -> 2572.00
16:30:18:099 -> 2631.00
16:30:18:099 -> 2602.00
16:30:18:099 -> 2493.00
16:30:18:099 -> 2537.00
16:30:18:099 -> 2523.00
16:30:18:099 -> 2562.00
16:30:18:099 -> 2639.00
16:30:18:099 -> 2655.00
16:30:18:099 -> 2593.00
16:30:18:099 -> 2596.00
16:30:18:099 -> 2653.00
16:30:18:099 -> 2638.00
16:30:18:099 -> 2612.00
16:30:18:099 -> 2643.00
16:30:18:099 -> 2640.00
16:30:18:116 -> 2644.00
16:30:18:116 -> 2607.00
16:30:18:116 -> 2608.00
16:30:18:116 -> 2635.00
16:30:18:116 -> 2627.00
16:30:18:116 -> 2651.00
16:30:18:116 -> 2559.00
16:30:18:116 -> 2534.00
16:30:18:116 -> 2567.00
16:30:18:116 -> 2616.00
16:30:18:116 -> 2623.00
16:30:18:116 -> 2573.00
16:30:18:116 -> 2592.00
16:30:18:116 -> 2577.00
16:30:18:116 -> 2538.00
16:30:18:121 -> 2618.00
16:30:18:121 -> 2717.00
16:30:18:121 -> 2659.00
16:30:18:121 -> 2676.00
16:30:18:128 -> 2690.00
16:30:18:128 -> 2663.00
16:30:18:128 -> 2659.00
16:30:18:128 -> 2635.00
16:30:18:128 -> 2582.00
16:30:18:137 -> 2586.00
16:30:18:137 -> 2630.00
16:30:18:137 -> 2601.00
16:30:18:137 -> 2598.00
16:30:18:137 -> 2625.00
16:30:18:137 -> 2627.00
16:30:18:137 -> 2612.00
16:30:18:137 -> 2622.00
16:30:18:137 -> 2625.00
16:30:18:141 -> 2613.00
16:30:18:141 -> 2625.00
16:30:18:141 -> 2667.00
16:30:18:143 -> 2692.00
16:30:18:147 -> 2681.00
16:30:18:147 -> 2620.00
16:30:18:147 -> 2588.00
16:30:18:147 -> 2602.00
16:30:18:156 -> 2525.00
16:30:18:156 -> 2593.00
16:30:18:156 -> 2621.00
16:30:18:156 -> 2624.00
16:30:18:156 -> 2577.00
16:30:18:156 -> 2622.00
16:30:18:156 -> 2623.00
16:30:18:162 -> 2627.00
16:30:18:162 -> 2609.00
16:30:18:162 -> 2629.00
16:30:18:162 -> 2596.00
16:30:18:162 -> 2636.00
16:30:18:169 -> 2651.00
16:30:18:169 -> 2613.00
16:30:18:169 -> 2611.00
16:30:18:169 -> 2643.00
16:30:18:169 -> 2567.00
16:30:18:169 -> 2585.00
16:30:18:170 -> 2623.00
16:30:18:170 -> 2591.00
16:30:18:171 -> 2579.00
16:30:18:173 -> 2577.00
16:30:18:174 -> 2641.00
16:30:18:175 -> 2523.00
16:30:18:176 -> 2468.00
16:30:18:177 -> 2554.00
16:30:18:179 -> 2631.00
16:30:18:180 -> 2701.00
16:30:18:190 -> 2698.00
16:30:18:190 -> 2622.00
16:30:18:190 -> 2572.00
16:30:18:190 -> 2507.00
16:30:18:190 -> 2579.00
16:30:18:191 -> 2615.00
16:30:18:191 -> 2551.00
16:30:18:191 -> 2527.00
16:30:18:191 -> 2552.00
16:30:18:192 -> 2623.00
16:30:18:194 -> 2661.00
16:30:18:195 -> 2624.00
16:30:18:195 -> 2661.00
16:30:18:196 -> 2713.00
16:30:18:198 -> 2702.00
16:30:18:199 -> 2664.00
16:30:18:212 -> 2705.00
16:30:18:212 -> 2650.00
16:30:18:212 -> 2648.00
16:30:18:212 -> 2597.00
16:30:18:212 -> 2580.00
16:30:18:212 -> 2572.00
16:30:18:212 -> 2624.00
16:30:18:212 -> 2733.00
16:30:18:220 -> 2670.00
16:30:18:220 -> 2604.00
16:30:18:220 -> 2607.00
16:30:18:220 -> 2632.00
16:30:18:220 -> 2586.00
16:30:18:220 -> 2630.00
16:30:18:220 -> 2593.00
16:30:18:220 -> 2707.00
16:30:18:220 -> 2658.00
16:30:18:225 -> 2606.00
16:30:18:225 -> 2645.00
16:30:18:225 -> 2651.00
16:30:18:225 -> 2628.00
16:30:18:278 -> 2620.00
16:30:18:278 -> 2607.00
16:30:18:278 -> 2651.00
16:30:18:278 -> 2646.00
16:30:18:278 -> 2620.00
16:30:18:278 -> 2630.00
16:30:18:278 -> 2617.00
16:30:18:278 -> 2626.00
16:30:18:278 -> 2662.00
16:30:18:278 -> 2610.00
16:30:18:278 -> 2589.00
16:30:18:278 -> 2581.00
16:30:18:278 -> 2575.00
16:30:18:278 -> 2597.00
16:30:18:278 -> 2576.00
16:30:18:278 -> 2638.00
16:30:18:278 -> 2612.00
16:30:18:292 -> 2639.00
16:30:18:292 -> 2600.00
16:30:18:292 -> 2490.00
16:30:18:292 -> 2550.00
16:30:18:292 -> 2636.00
16:30:18:292 -> 2667.00
16:30:18:292 -> 2610.00
16:30:18:292 -> 2615.00
16:30:18:292 -> 2637.00
16:30:18:292 -> 2649.00
16:30:18:292 -> 2625.00
16:30:18:292 -> 2698.00
16:30:18:292 -> 2665.00
16:30:18:292 -> 2659.00
16:30:18:292 -> 2572.00
16:30:18:292 -> 2615.00
16:30:18:292 -> 2611.00
16:30:18:292 -> 2644.00
16:30:18:292 -> 2687.00
16:30:18:292 -> 2627.00
16:30:18:292 -> 2562.00
16:30:18:292 -> 2568.00
16:30:18:292 -> 2635.00
16:30:18:292 -> 2632.00
16:30:18:292 -> 2592.00
16:30:18:292 -> 2619.00
16:30:18:292 -> 2567.00
16:30:18:292 -> 2594.00
16:30:18:292 -> 2615.00
16:30:18:292 -> 2639.00
16:30:18:292 -> 2595.00
16:30:18:292 -> 2551.00
16:30:18:292 -> 2503.00
16:30:18:292 -> 2521.00
16:30:18:292 -> 2616.00
16:30:18:292 -> 2676.00
16:30:18:292 -> 2644.00
16:30:18:293 -> 2633.00
16:30:18:293 -> 2568.00
16:30:18:293 -> 2591.00
16:30:18:293 -> 2642.00
16:30:18:294 -> 2622.00
16:30:18:295 -> 2678.00
16:30:18:296 -> 2608.00
16:30:18:298 -> 2655.00
16:30:18:299 -> 2632.00
16:30:18:301 -> 2613.00
16:30:18:302 -> 2585.00
16:30:18:304 -> 2610.00
16:30:18:304 -> 2639.00
16:30:18:305 -> 2637.00
16:30:18:306 -> 2627.00
16:30:18:307 -> 2646.00
16:30:18:308 -> 2640.00
16:30:18:310 -> 2617.00
16:30:18:311 -> 2633.00
16:30:18:312 -> 2582.00
16:30:18:313 -> 2559.00
16:30:18:315 -> 2623.00
16:30:18:317 -> 2610.00
16:30:18:317 -> 2697.00
16:30:18:320 -> 2695.00
16:30:18:320 -> 2598.00
16:30:18:322 -> 2557.00
16:30:18:322 -> 2592.00
16:30:18:324 -> 2659.00
16:30:18:335 -> 2669.00
16:30:18:335 -> 2632.00
16:30:18:335 -> 2575.00
16:30:18:335 -> 2619.00
16:30:18:335 -> 2681.00
16:30:18:335 -> 2632.00
16:30:18:335 -> 2549.00
16:30:18:335 -> 2564.00
16:30:18:335 -> 2614.00
16:30:18:335 -> 2653.00
16:30:18:340 -> 2586.00
16:30:18:340 -> 2579.00
16:30:18:340 -> 2548.00
16:30:18:340 -> 2628.00
16:30:18:341 -> 2717.00
16:30:18:345 -> 2641.00
16:30:18:345 -> 2671.00
16:30:18:345 -> 2665.00
16:30:18:351 -> 2645.00
16:30:18:351 -> 2589.00
16:30:18:351 -> 2575.00
16:30:18:351 -> 2557.00
16:30:18:351 -> 2573.00
16:30:18:359 -> 2602.00
16:30:18:359 -> 2590.00
16:30:18:359 -> 2617.00
16:30:18:359 -> 2575.00
16:30:18:359 -> 2623.00
16:30:18:359 -> 2651.00
16:30:18:359 -> 2622.00
16:30:18:360 -> 2610.00
16:30:18:366 -> 2635.00
16:30:18:366 -> 2633.00
16:30:18:366 -> 2683.00
16:30:18:366 -> 2658.00
16:30:18:366 -> 2594.00
16:30:18:369 -> 2550.00
16:30:18:369 -> 2594.00
16:30:18:369 -> 2588.00
16:30:18:370 -> 2542.00
16:30:18:371 -> 2553.00
16:30:18:373 -> 2558.00
16:30:18:374 -> 2589.00
16:30:18:394 -> 2587.00
16:30:18:394 -> 2607.00
16:30:18:394 -> 2688.00
16:30:18:394 -> 2701.00
16:30:18:394 -> 2712.00
16:30:18:394 -> 2713.00
16:30:18:394 -> 2668.00
16:30:18:394 -> 2655.00
16:30:18:394 -> 2646.00
16:30:18:394 -> 2566.00
16:30:18:394 -> 2522.00
16:30:18:394 -> 2628.00
16:30:18:394 -> 2667.00
16:30:18:394 -> 2621.00
16:30:18:394 -> 2615.00
16:30:18:394 -> 2641.00
16:30:18:400 -> 2654.00
16:30:18:400 -> 2684.00
16:30:18:400 -> 2602.00
16:30:18:400 -> 2624.00
16:30:18:400 -> 2580.00
16:30:18:400 -> 2611.00
16:30:18:403 -> 2617.00
16:30:18:403 -> 2617.00
16:30:18:404 -> 2542.00
16:30:18:405 -> 2605.00
16:30:18:406 -> 2588.00
16:30:18:407 -> 2596.00
16:30:18:408 -> 2604.00
16:30:18:409 -> 2587.00
16:30:18:411 -> 2590.00
16:30:18:412 -> 2701.00
16:30:18:413 -> 2692.00
16:30:18:426 -> 2609.00
16:30:18:426 -> 2586.00
16:30:18:426 -> 2592.00
16:30:18:426 -> 2620.00
16:30:18:426 -> 2674.00
16:30:18:426 -> 2664.00
16:30:18:426 -> 2668.00
16:30:18:426 -> 2621.00
16:30:18:426 -> 2609.00
16:30:18:426 -> 2599.00
16:30:18:431 -> 2655.00
16:30:18:431 -> 2634.00
16:30:18:431 -> 2591.00
16:30:18:431 -> 2576.00
16:30:18:431 -> 2558.00
16:30:18:443 -> 2650.00
16:30:18:443 -> 2642.00
16:30:18:443 -> 2616.00
16:30:18:443 -> 2590.00
16:30:18:443 -> 2638.00
16:30:18:443 -> 2610.00
16:30:18:443 -> 2628.00
16:30:18:443 -> 2576.00
16:30:18:443 -> 2617.00
16:30:18:443 -> 2636.00
16:30:18:447 -> 2604.00
16:30:18:447 -> 2592.00
16:30:18:447 -> 2570.00
16:30:18:449 -> 2560.00
16:30:18:449 -> 2610.00
16:30:18:451 -> 2618.00
16:30:18:451 -> 2636.00
16:30:18:452 -> 2639.00
16:30:18:454 -> 2599.00
16:30:18:455 -> 2546.00
16:30:18:464 -> 2511.00
16:30:18:464 -> 2642.00
16:30:18:464 -> 2625.00
16:30:18:464 -> 2579.00
16:30:18:464 -> 2614.00
16:30:18:464 -> 2622.00
16:30:18:464 -> 2681.00
16:30:18:465 -> 2657.00
16:30:18:466 -> 2655.00
16:30:18:467 -> 2630.00
16:30:18:468 -> 2509.00
16:30:18:469 -> 2642.00
16:30:18:470 -> 2646.00
16:30:18:471 -> 2579.00
16:30:18:473 -> 2602.00
16:30:18:474 -> 2619.00
16:30:18:475 -> 2672.00
16:30:18:476 -> 2680.00
16:30:18:477 -> 2638.00
16:30:18:479 -> 2589.00
16:30:18:480 -> 2595.00
16:30:18:481 -> 2574.00
16:30:18:498 -> 2594.00
16:30:18:498 -> 2615.00
16:30:18:498 -> 2652.00
16:30:18:498 -> 2581.00
16:30:18:498 -> 2507.00
16:30:18:498 -> 2571.00
16:30:18:498 -> 2679.00
16:30:18:498 -> 2632.00
16:30:18:498 -> 2631.00
16:30:18:498 -> 2575.00
16:30:18:498 -> 2655.00
16:30:18:498 -> 2677.00
16:30:18:498 -> 2649.00
16:30:18:498 -> 2592.00
16:30:18:505 -> 2552.00
16:30:18:505 -> 2626.00
16:30:18:505 -> 2657.00
16:30:18:505 -> 2525.00
16:30:18:505 -> 2601.00
16:30:18:505 -> 2615.00
16:30:18:507 -> 2629.00
16:30:18:507 -> 2562.00
16:30:18:508 -> 2552.00
16:30:18:509 -> 2548.00
16:30:18:512 -> 2576.00
16:30:18:518 -> 2578.00
16:30:18:518 -> 2508.00
16:30:18:518 -> 2530.00
16:30:18:518 -> 2620.00
16:30:18:518 -> 2729.00
16:30:18:537 -> 2744.00
16:30:18:537 -> 2629.00
16:30:18:537 -> 2641.00
16:30:18:537 -> 2583.00
16:30:18:537 -> 2656.00
16:30:18:537 -> 2704.00
16:30:18:537 -> 2707.00
16:30:18:537 -> 2560.00
16:30:18:537 -> 2616.00
16:30:18:537 -> 2655.00
16:30:18:537 -> 2692.00
16:30:18:537 -> 2679.00
16:30:18:537 -> 2626.00
16:30:18:537 -> 2616.00
16:30:18:537 -> 2599.00
16:30:18:537 -> 2680.00
16:30:18:537 -> 2598.00
16:30:18:544 -> 2620.00
16:30:18:544 -> 2582.00
16:30:18:544 -> 2541.00
16:30:18:544 -> 2517.00
16:30:18:544 -> 2597.00
16:30:18:544 -> 2549.00
16:30:18:553 -> 2586.00
16:30:18:553 -> 2588.00
16:30:18:553 -> 2663.00
16:30:18:553 -> 2656.00
16:30:18:553 -> 2636.00
16:30:18:553 -> 2669.00
16:30:18:553 -> 2615.00
16:30:18:564 -> 2629.00
16:30:18:564 -> 2695.00
16:30:18:564 -> 2669.00
16:30:18:564 -> 2597.00
16:30:18:564 -> 2556.00
16:30:18:564 -> 2633.00
16:30:18:564 -> 2595.00
16:30:18:564 -> 2565.00
16:30:18:564 -> 2621.00
16:30:18:572 -> 2599.00
16:30:18:572 -> 2551.00
16:30:18:572 -> 2569.00
16:30:18:572 -> 2559.00
16:30:18:572 -> 2600.00
16:30:18:572 -> 2637.00
16:30:18:572 -> 2715.00
16:30:18:580 -> 2711.00
16:30:18:580 -> 2708.00
16:30:18:580 -> 2632.00
16:30:18:580 -> 2643.00
16:30:18:580 -> 2610.00
16:30:18:580 -> 2650.00
16:30:18:580 -> 2726.00
16:30:18:582 -> 2694.00
16:30:18:582 -> 2636.00
16:30:18:590 -> 2572.00
16:30:18:590 -> 2607.00
16:30:18:590 -> 2595.00
16:30:18:590 -> 2498.00
16:30:18:590 -> 2558.00
16:30:18:590 -> 2652.00
16:30:18:593 -> 2600.00
16:30:18:593 -> 2587.00
16:30:18:593 -> 2556.00
16:30:18:598 -> 2585.00
16:30:18:598 -> 2665.00
16:30:18:598 -> 2716.00
16:30:18:598 -> 2735.00
16:30:18:599 -> 2624.00
16:30:18:600 -> 2577.00
16:30:18:601 -> 2570.00
16:30:18:602 -> 2572.00
16:30:18:604 -> 2630.00
16:30:18:605 -> 2655.00
16:30:18:606 -> 2615.00
16:30:18:607 -> 2542.00
16:30:18:617 -> 2546.00
16:30:18:617 -> 2616.00
16:30:18:617 -> 2595.00
16:30:18:617 -> 2590.00
16:30:18:617 -> 2682.00
16:30:18:617 -> 2654.00
16:30:18:622 -> 2591.00
16:30:18:622 -> 2686.00
16:30:18:622 -> 2631.00
16:30:18:622 -> 2653.00
16:30:18:622 -> 2635.00
16:30:18:622 -> 2630.00
16:30:18:623 -> 2642.00
16:30:18:624 -> 2645.00
16:30:18:625 -> 2716.00
16:30:18:626 -> 2510.00
16:30:18:628 -> 2485.00
16:30:18:628 -> 2524.00
16:30:18:630 -> 2540.00
16:30:18:631 -> 2563.00
16:30:18:632 -> 2534.00
16:30:18:633 -> 2571.00
16:30:18:634 -> 2571.00
16:30:18:636 -> 2623.00
16:30:18:637 -> 2689.00
16:30:18:638 -> 2629.00
16:30:18:639 -> 2647.00
16:30:18:640 -> 2654.00
16:30:18:642 -> 2692.00
16:30:18:643 -> 2685.00
16:30:18:644 -> 2688.00
16:30:18:647 -> 2619.00
16:30:18:647 -> 2525.00
16:30:18:648 -> 2565.00
16:30:18:649 -> 2634.00
16:30:18:654 -> 2648.00
16:30:18:654 -> 2583.00
16:30:18:654 -> 2587.00
16:30:18:654 -> 2617.00
16:30:18:662 -> 2638.00
16:30:18:662 -> 2643.00
16:30:18:662 -> 2654.00
16:30:18:662 -> 2671.00
16:30:18:662 -> 2683.00
16:30:18:662 -> 2614.00
16:30:18:664 -> 2632.00
16:30:18:664 -> 2637.00
16:30:18:664 -> 2577.00
16:30:18:667 -> 2589.00
16:30:18:667 -> 2643.00
16:30:18:668 -> 2651.00
16:30:18:669 -> 2577.00
16:30:18:670 -> 2621.00
16:30:18:671 -> 2590.00
16:30:18:673 -> 2599.00
16:30:18:674 -> 2631.00
16:30:18:675 -> 2606.00
16:30:18:676 -> 2572.00
16:30:18:677 -> 2555.00
16:30:18:678 -> 2634.00
16:30:18:680 -> 2593.00
16:30:18:681 -> 2674.00
16:30:18:682 -> 2673.00
16:30:18:683 -> 2584.00
16:30:18:684 -> 2552.00
16:30:18:686 -> 2662.00
16:30:18:687 -> 2619.00
16:30:18:688 -> 2629.00
16:30:18:689 -> 2613.00
16:30:18:690 -> 2589.00
16:30:18:692 -> 2651.00
16:30:18:693 -> 2653.00
16:30:18:694 -> 2692.00
16:30:18:695 -> 2596.00
16:30:18:696 -> 2641.00
16:30:18:697 -> 2629.00
16:30:18:699 -> 2636.00
16:30:18:700 -> 2643.00
16:30:18:701 -> 2612.00
16:30:18:702 -> 2660.00
16:30:18:703 -> 2611.00
16:30:18:705 -> 2613.00
16:30:18:706 -> 2573.00
16:30:18:707 -> 2539.00
16:30:18:708 -> 2581.00
16:30:18:709 -> 2571.00
16:30:18:711 -> 2673.00
16:30:18:712 -> 2626.00
16:30:18:713 -> 2593.00
16:30:18:714 -> 2637.00
16:30:18:715 -> 2600.00
16:30:18:718 -> 2626.00
16:30:18:720 -> 2645.00
16:30:18:720 -> 2663.00
16:30:18:720 -> 2651.00
16:30:18:721 -> 2711.00
16:30:18:723 -> 2720.00
16:30:18:726 -> 2579.00
16:30:18:726 -> 2467.00
16:30:18:727 -> 2573.00
16:30:18:727 -> 2655.00
16:30:18:728 -> 2569.00
16:30:18:730 -> 2561.00
16:30:18:731 -> 2568.00
16:30:18:732 -> 2616.00
16:30:18:733 -> 2652.00
16:30:18:734 -> 2516.00
16:30:18:736 -> 2529.00
16:30:18:737 -> 2629.00
16:30:18:738 -> 2806.00
16:30:18:829 -> 2708.00
16:30:18:829 -> 2719.00
16:30:18:829 -> 2710.00
16:30:18:829 -> 2672.00
16:30:18:829 -> 2531.00
16:30:18:829 -> 2504.00
16:30:18:829 -> 2553.00
16:30:18:829 -> 2584.00
16:30:18:829 -> 2549.00
16:30:18:829 -> 2598.00
16:30:18:829 -> 2601.00
16:30:18:829 -> 2575.00
16:30:18:829 -> 2571.00
16:30:18:829 -> 2719.00
16:30:18:829 -> 2753.00
16:30:18:829 -> 2682.00
16:30:18:829 -> 2665.00
16:30:18:829 -> 2647.00
16:30:18:829 -> 2685.00
16:30:18:829 -> 2571.00
16:30:18:829 -> 2620.00
16:30:18:829 -> 2636.00
16:30:18:829 -> 2624.00
16:30:18:829 -> 2615.00
16:30:18:829 -> 2575.00
16:30:18:829 -> 2554.00
16:30:18:829 -> 2642.00
16:30:18:829 -> 2647.00
16:30:18:829 -> 2630.00
16:30:18:829 -> 2611.00
16:30:18:829 -> 2616.00
16:30:18:829 -> 2668.00
16:30:18:829 -> 2669.00
16:30:18:829 -> 2573.00
16:30:18:829 -> 2598.00
16:30:18:829 -> 2627.00
16:30:18:829 -> 2596.00
16:30:18:835 -> 2577.00
16:30:18:835 -> 2573.00
16:30:18:835 -> 2582.00
16:30:18:835 -> 2674.00
16:30:18:835 -> 2608.00
16:30:18:835 -> 2661.00
16:30:18:835 -> 2677.00
16:30:18:835 -> 2547.00
16:30:18:835 -> 2550.00
16:30:18:835 -> 2664.00
16:30:18:835 -> 2556.00
16:30:18:835 -> 2592.00
16:30:18:835 -> 2615.00
16:30:18:835 -> 2639.00
16:30:18:835 -> 2630.00
16:30:18:835 -> 2629.00
16:30:18:835 -> 2561.00
16:30:18:835 -> 2700.00
16:30:18:835 -> 2665.00
16:30:18:835 -> 2568.00
16:30:18:835 -> 2510.00
16:30:18:835 -> 2517.00
16:30:18:835 -> 2520.00
16:30:18:835 -> 2624.00
16:30:18:835 -> 2664.00
16:30:18:835 -> 2681.00
16:30:18:835 -> 2596.00
16:30:18:835 -> 2537.00
16:30:18:835 -> 2643.00
16:30:18:835 -> 2727.00
16:30:18:835 -> 2638.00
16:30:18:835 -> 2612.00
16:30:18:835 -> 2605.00
16:30:18:835 -> 2647.00
16:30:18:835 -> 2659.00
16:30:18:835 -> 2603.00
16:30:18:835 -> 2638.00
16:30:18:835 -> 2660.00
16:30:18:835 -> 2749.00
16:30:18:835 -> 2631.00
16:30:18:835 -> 2622.00
16:30:18:835 -> 2639.00
16:30:18:835 -> 2617.00
16:30:18:835 -> 2645.00
16:30:18:861 -> 2618.00
16:30:18:861 -> 2599.00
16:30:18:861 -> 2535.00
16:30:18:861 -> 2550.00
16:30:18:861 -> 2616.00
16:30:18:861 -> 2659.00
16:30:18:861 -> 2686.00
16:30:18:861 -> 2680.00
16:30:18:861 -> 2621.00
16:30:18:861 -> 2631.00
16:30:18:861 -> 2629.00
16:30:18:861 -> 2592.00
16:30:18:861 -> 2613.00
16:30:18:861 -> 2649.00
16:30:18:861 -> 2580.00
16:30:18:861 -> 2634.00
16:30:18:861 -> 2641.00
16:30:18:861 -> 2617.00
16:30:18:861 -> 2612.00
16:30:18:861 -> 2609.00
16:30:18:861 -> 2636.00
16:30:18:861 -> 2655.00
16:30:18:867 -> 2634.00
16:30:18:867 -> 2585.00
16:30:18:867 -> 2503.00
16:30:18:867 -> 2518.00
16:30:18:867 -> 2590.00
16:30:18:873 -> 2613.00
16:30:18:873 -> 2693.00
16:30:18:873 -> 2647.00
16:30:18:873 -> 2637.00
16:30:18:873 -> 2681.00
16:30:18:874 -> 2664.00
16:30:18:875 -> 2632.00
16:30:18:876 -> 2576.00
16:30:18:891 -> 2591.00
16:30:18:891 -> 2662.00
16:30:18:891 -> 2606.00
16:30:18:891 -> 2659.00
16:30:18:891 -> 2601.00
16:30:18:891 -> 2596.00
16:30:18:891 -> 2621.00
16:30:18:891 -> 2699.00
16:30:18:891 -> 2529.00
16:30:18:891 -> 2627.00
16:30:18:891 -> 2616.00
16:30:18:891 -> 2543.00
16:30:18:901 -> 2674.00
16:30:18:903 -> 2612.00
16:30:18:903 -> 2583.00
16:30:18:903 -> 2532.00
16:30:18:903 -> 2628.00
16:30:18:903 -> 2651.00
16:30:18:903 -> 2606.00
16:30:18:903 -> 2576.00
16:30:18:903 -> 2545.00
16:30:18:903 -> 2575.00
16:30:18:904 -> 2579.00
16:30:18:911 -> 2634.00
16:30:18:911 -> 2656.00
16:30:18:911 -> 2617.00
16:30:18:911 -> 2586.00
16:30:18:911 -> 2557.00
16:30:18:911 -> 2593.00
16:30:18:915 -> 2615.00
16:30:18:915 -> 2623.00
16:30:18:915 -> 2664.00
16:30:18:918 -> 2615.00
16:30:18:918 -> 2580.00
16:30:18:918 -> 2683.00
16:30:18:919 -> 2650.00
16:30:18:922 -> 2609.00
16:30:18:922 -> 2569.00
16:30:18:928 -> 2626.00
16:30:18:928 -> 2590.00
16:30:18:928 -> 2564.00
16:30:18:928 -> 2592.00
16:30:18:928 -> 2678.00
16:30:18:932 -> 2659.00
16:30:18:932 -> 2590.00
16:30:18:932 -> 2565.00
16:30:18:934 -> 2609.00
16:30:18:934 -> 2614.00
16:30:18:935 -> 2564.00
16:30:18:936 -> 2619.00
16:30:18:938 -> 2682.00
16:30:18:938 -> 2674.00
16:30:18:939 -> 2613.00
16:30:18:940 -> 2710.00
16:30:18:941 -> 2685.00
16:30:18:943 -> 2661.00
16:30:18:944 -> 2691.00
16:30:18:945 -> 2660.00
16:30:18:946 -> 2637.00
16:30:18:947 -> 2612.00
16:30:18:949 -> 2559.00
16:30:18:950 -> 2551.00
16:30:18:951 -> 2533.00
16:30:18:952 -> 2597.00
16:30:18:953 -> 2618.00
16:30:18:954 -> 2583.00
16:30:18:956 -> 2567.00
16:30:18:957 -> 2641.00
16:30:18:958 -> 2553.00
16:30:18:959 -> 2587.00
16:30:18:960 -> 2574.00
16:30:18:962 -> 2676.00
16:30:18:963 -> 2693.00
16:30:18:964 -> 2680.00
16:30:18:965 -> 2618.00
16:30:18:967 -> 2658.00
16:30:18:968 -> 2587.00
16:30:18:969 -> 2544.00
16:30:18:970 -> 2583.00
16:30:18:971 -> 2514.00
16:30:18:972 -> 2609.00
16:30:18:973 -> 2722.00
16:30:18:975 -> 2738.00
16:30:18:990 -> 2727.00
16:30:18:990 -> 2714.00
16:30:18:990 -> 2537.00
16:30:18:990 -> 2605.00
16:30:18:990 -> 2603.00
16:30:18:994 -> 2709.00
16:30:18:994 -> 2684.00
16:30:18:994 -> 2620.00
16:30:18:994 -> 2569.00
16:30:18:994 -> 2558.00
16:30:18:994 -> 2510.00
16:30:18:994 -> 2571.00
16:30:18:994 -> 2671.00
16:30:18:994 -> 2562.00
16:30:18:994 -> 2588.00
16:30:18:994 -> 2640.00
16:30:18:995 -> 2641.00
16:30:18:996 -> 2634.00
16:30:19:000 -> 2561.00
16:30:19:000 -> 2606.00
16:30:19:000 -> 2685.00
16:30:19:006 -> 2674.00
16:30:19:006 -> 2619.00
16:30:19:006 -> 2588.00
16:30:19:006 -> 2543.00
16:30:19:006 -> 2628.00
16:30:19:008 -> 2676.00
16:30:19:009 -> 2558.00
16:30:19:018 -> 2600.00
16:30:19:018 -> 2656.00
16:30:19:018 -> 2634.00
16:30:19:018 -> 2584.00
16:30:19:018 -> 2573.00
16:30:19:018 -> 2675.00
16:30:19:018 -> 2699.00
16:30:19:019 -> 2581.00
16:30:19:019 -> 2624.00
16:30:19:020 -> 2591.00
16:30:19:021 -> 2609.00
16:30:19:022 -> 2639.00
16:30:19:024 -> 2621.00
16:30:19:025 -> 2675.00
16:30:19:026 -> 2612.00
16:30:19:027 -> 2556.00
16:30:19:028 -> 2603.00
16:30:19:029 -> 2662.00
16:30:19:031 -> 2640.00
16:30:19:032 -> 2619.00
16:30:19:033 -> 2585.00
16:30:19:034 -> 2641.00
16:30:19:035 -> 2660.00
16:30:19:037 -> 2641.00
16:30:19:038 -> 2616.00
16:30:19:039 -> 2621.00
16:30:19:040 -> 2758.00
16:30:19:041 -> 2731.00
16:30:19:043 -> 2596.00
16:30:19:044 -> 2619.00
16:30:19:045 -> 2616.00
16:30:19:046 -> 2648.00
16:30:19:047 -> 2572.00
16:30:19:049 -> 2527.00
16:30:19:050 -> 2549.00
16:30:19:051 -> 2654.00
16:30:19:052 -> 2650.00
16:30:19:053 -> 2621.00
16:30:19:054 -> 2615.00
16:30:19:056 -> 2619.00
16:30:19:057 -> 2575.00
16:30:19:058 -> 2584.00
16:30:19:059 -> 2566.00
16:30:19:064 -> 2611.00
16:30:19:064 -> 2645.00
16:30:19:064 -> 2563.00
16:30:19:065 -> 2614.00
16:30:19:068 -> 2581.00
16:30:19:069 -> 2600.00
16:30:19:069 -> 2754.00
16:30:19:069 -> 2573.00
16:30:19:070 -> 2630.00
16:30:19:071 -> 2682.00
16:30:19:072 -> 2724.00
16:30:19:073 -> 2705.00
16:30:19:075 -> 2604.00
16:30:19:076 -> 2536.00
16:30:19:078 -> 2608.00
16:30:19:084 -> 2606.00
16:30:19:084 -> 2598.00
16:30:19:084 -> 2647.00
16:30:19:084 -> 2706.00
16:30:19:084 -> 2665.00
16:30:19:086 -> 2596.00
16:30:19:086 -> 2572.00
16:30:19:087 -> 2557.00
16:30:19:088 -> 2616.00
16:30:19:089 -> 2585.00
16:30:19:090 -> 2638.00
16:30:19:091 -> 2621.00
16:30:19:092 -> 2629.00
16:30:19:094 -> 2621.00
16:30:19:095 -> 2633.00
16:30:19:096 -> 2625.00
16:30:19:097 -> 2686.00
16:30:19:098 -> 2713.00
16:30:19:100 -> 2692.00
16:30:19:101 -> 2654.00
16:30:19:102 -> 2621.00
16:30:19:103 -> 2557.00
16:30:19:104 -> 2614.00
16:30:19:106 -> 2615.00
16:30:19:107 -> 2542.00
16:30:19:108 -> 2593.00
16:30:19:110 -> 2609.00
16:30:19:116 -> 2600.00
16:30:19:116 -> 2628.00
16:30:19:116 -> 2627.00
16:30:19:116 -> 2543.00
16:30:19:126 -> 2600.00
16:30:19:126 -> 2682.00
16:30:19:126 -> 2676.00
16:30:19:126 -> 2624.00
16:30:19:126 -> 2653.00
16:30:19:126 -> 2673.00
16:30:19:126 -> 2641.00
16:30:19:126 -> 2604.00
16:30:19:126 -> 2614.00
16:30:19:126 -> 2532.00
16:30:19:128 -> 2541.00
16:30:19:128 -> 2614.00
16:30:19:129 -> 2600.00
16:30:19:131 -> 2635.00
16:30:19:132 -> 2600.00
16:30:19:133 -> 2602.00
16:30:19:134 -> 2650.00
16:30:19:135 -> 2647.00
16:30:19:137 -> 2679.00
16:30:19:138 -> 2658.00
16:30:19:139 -> 2694.00
16:30:19:140 -> 2626.00
16:30:19:141 -> 2645.00
16:30:19:143 -> 2617.00
16:30:19:144 -> 2577.00
16:30:19:145 -> 2541.00
16:30:19:146 -> 2556.00
16:30:19:147 -> 2582.00
16:30:19:148 -> 2578.00
16:30:19:150 -> 2580.00
16:30:19:152 -> 2591.00
16:30:19:153 -> 2663.00
16:30:19:154 -> 2684.00
16:30:19:155 -> 2657.00
16:30:19:156 -> 2653.00
16:30:19:160 -> 2610.00
16:30:19:177 -> 2597.00
16:30:19:177 -> 2616.00
16:30:19:177 -> 2593.00
16:30:19:187 -> 2622.00
16:30:19:187 -> 2647.00
16:30:19:187 -> 2650.00
16:30:19:187 -> 2634.00
16:30:19:187 -> 2566.00
16:30:19:187 -> 2570.00
16:30:19:187 -> 2625.00
16:30:19:187 -> 2568.00
16:30:19:187 -> 2478.00
16:30:19:187 -> 2549.00
16:30:19:187 -> 2633.00
16:30:19:187 -> 2705.00
16:30:19:187 -> 2731.00
16:30:19:187 -> 2675.00
16:30:19:187 -> 2550.00
16:30:19:187 -> 2640.00
16:30:19:187 -> 2628.00
16:30:19:187 -> 2656.00
16:30:19:187 -> 2684.00
16:30:19:187 -> 2613.00
16:30:19:190 -> 2597.00
16:30:19:190 -> 2634.00
16:30:19:190 -> 2561.00
16:30:19:190 -> 2621.00
16:30:19:190 -> 2611.00
16:30:19:191 -> 2614.00
16:30:19:193 -> 2569.00
16:30:19:194 -> 2598.00
16:30:19:195 -> 2756.00
16:30:19:196 -> 2580.00
16:30:19:197 -> 2686.00
16:30:19:198 -> 2689.00
16:30:19:200 -> 2667.00
16:30:19:201 -> 2679.00
16:30:19:202 -> 2625.00
16:30:19:203 -> 2592.00
16:30:19:206 -> 2592.00
16:30:19:237 -> 2573.00
16:30:19:237 -> 2587.00
16:30:19:237 -> 2601.00
16:30:19:237 -> 2572.00
16:30:19:237 -> 2569.00
16:30:19:237 -> 2574.00
16:30:19:237 -> 2607.00
16:30:19:237 -> 2582.00
16:30:19:237 -> 2591.00
16:30:19:237 -> 2639.00
16:30:19:237 -> 2662.00
16:30:19:237 -> 2709.00
16:30:19:237 -> 2673.00
16:30:19:237 -> 2646.00
16:30:19:237 -> 2651.00
16:30:19:237 -> 2640.00
16:30:19:237 -> 2648.00
16:30:19:237 -> 2660.00
16:30:19:237 -> 2609.00
16:30:19:237 -> 2674.00
16:30:19:237 -> 2663.00
16:30:19:237 -> 2629.00
16:30:19:237 -> 2638.00
16:30:19:237 -> 2628.00
16:30:19:237 -> 2635.00
16:30:19:237 -> 2629.00
16:30:19:237 -> 2545.00
16:30:19:268 -> 2593.00
16:30:19:268 -> 2575.00
16:30:19:268 -> 2567.00
16:30:19:268 -> 2649.00
16:30:19:268 -> 2658.00
16:30:19:268 -> 2553.00
16:30:19:268 -> 2609.00
16:30:19:268 -> 2576.00
16:30:19:268 -> 2647.00
16:30:19:268 -> 2667.00
16:30:19:268 -> 2647.00
16:30:19:268 -> 2605.00
16:30:19:268 -> 2603.00
16:30:19:268 -> 2575.00
16:30:19:268 -> 2595.00
16:30:19:268 -> 2600.00
16:30:19:268 -> 2591.00
16:30:19:268 -> 2578.00
16:30:19:268 -> 2688.00
16:30:19:268 -> 2693.00
16:30:19:268 -> 2704.00
16:30:19:268 -> 2639.00
16:30:19:268 -> 2692.00
16:30:19:268 -> 2630.00
16:30:19:268 -> 2651.00
16:30:19:268 -> 2596.00
16:30:19:294 -> 2622.00
16:30:19:294 -> 2598.00
16:30:19:294 -> 2551.00
16:30:19:294 -> 2602.00
16:30:19:294 -> 2563.00
16:30:19:294 -> 2613.00
16:30:19:294 -> 2659.00
16:30:19:294 -> 2706.00
16:30:19:294 -> 2609.00
16:30:19:294 -> 2611.00
16:30:19:294 -> 2635.00
16:30:19:294 -> 2634.00
16:30:19:294 -> 2658.00
16:30:19:294 -> 2636.00
16:30:19:294 -> 2575.00
16:30:19:294 -> 2533.00
16:30:19:294 -> 2587.00
16:30:19:294 -> 2604.00
16:30:19:294 -> 2629.00
16:30:19:294 -> 2662.00
16:30:19:294 -> 2691.00
16:30:19:294 -> 2678.00
16:30:19:382 -> 2581.00
16:30:19:382 -> 2654.00
16:30:19:382 -> 2699.00
16:30:19:382 -> 2704.00
16:30:19:382 -> 2602.00
16:30:19:382 -> 2627.00
16:30:19:382 -> 2661.00
16:30:19:382 -> 2618.00
16:30:19:382 -> 2664.00
16:30:19:382 -> 2631.00
16:30:19:382 -> 2614.00
16:30:19:382 -> 2618.00
16:30:19:382 -> 2635.00
16:30:19:382 -> 2651.00
16:30:19:382 -> 2631.00
16:30:19:382 -> 2599.00
16:30:19:382 -> 2553.00
16:30:19:382 -> 2523.00
16:30:19:382 -> 2651.00
16:30:19:382 -> 2674.00
16:30:19:382 -> 2644.00
16:30:19:382 -> 2587.00
16:30:19:382 -> 2556.00
16:30:19:382 -> 2627.00
16:30:19:382 -> 2659.00
16:30:19:382 -> 2645.00
16:30:19:382 -> 2675.00
16:30:19:382 -> 2613.00
16:30:19:434 -> 2618.00
16:30:19:434 -> 2579.00
16:30:19:434 -> 2576.00
16:30:19:434 -> 2610.00
16:30:19:434 -> 2641.00
16:30:19:434 -> 2694.00
16:30:19:434 -> 2714.00
16:30:19:434 -> 2623.00
16:30:19:434 -> 2589.00
16:30:19:434 -> 2668.00
16:30:19:434 -> 2739.00
16:30:19:434 -> 2737.00
16:30:19:434 -> 2528.00
16:30:19:434 -> 2538.00
16:30:19:434 -> 2585.00
16:30:19:434 -> 2612.00
16:30:19:434 -> 2598.00
16:30:19:434 -> 2603.00
16:30:19:434 -> 2628.00
16:30:19:434 -> 2652.00
16:30:19:434 -> 2688.00
16:30:19:434 -> 2569.00
16:30:19:434 -> 2701.00
16:30:19:434 -> 2636.00
16:30:19:434 -> 2649.00
16:30:19:434 -> 2678.00
16:30:19:434 -> 2652.00
16:30:19:434 -> 2627.00
16:30:19:434 -> 2665.00
16:30:19:434 -> 2630.00
16:30:19:434 -> 2649.00
16:30:19:434 -> 2672.00
16:30:19:434 -> 2588.00
16:30:19:434 -> 2577.00
16:30:19:434 -> 2586.00
16:30:19:434 -> 2605.00
16:30:19:434 -> 2624.00
16:30:19:434 -> 2602.00
16:30:19:434 -> 2613.00
16:30:19:434 -> 2547.00
16:30:19:434 -> 2609.00
16:30:19:434 -> 2599.00
16:30:19:434 -> 2679.00
16:30:19:434 -> 2656.00
16:30:19:434 -> 2666.00
16:30:19:434 -> 2620.00
16:30:19:434 -> 2594.00
16:30:19:434 -> 2683.00
16:30:19:434 -> 2604.00
16:30:19:434 -> 2678.00
16:30:19:434 -> 2661.00
16:30:19:434 -> 2670.00
16:30:19:434 -> 2650.00
16:30:19:434 -> 2606.00
16:30:19:434 -> 2667.00
16:30:19:434 -> 2628.00
16:30:19:434 -> 2620.00
16:30:19:434 -> 2675.00
16:30:19:434 -> 2649.00
16:30:19:434 -> 2603.00
16:30:19:434 -> 2569.00
16:30:19:434 -> 2580.00
16:30:19:434 -> 2617.00
16:30:19:457 -> 2583.00
16:30:19:457 -> 2625.00
16:30:19:457 -> 2627.00
16:30:19:457 -> 2561.00
16:30:19:457 -> 2570.00
16:30:19:457 -> 2603.00
16:30:19:457 -> 2589.00
16:30:19:457 -> 2603.00
16:30:19:457 -> 2645.00
16:30:19:457 -> 2694.00
16:30:19:457 -> 2717.00
16:30:19:457 -> 2688.00
16:30:19:457 -> 2625.00
16:30:19:457 -> 2684.00
16:30:19:457 -> 2713.00
16:30:19:457 -> 2678.00
16:30:19:457 -> 2621.00
16:30:19:457 -> 2619.00
16:30:19:457 -> 2549.00
16:30:19:457 -> 2526.00
16:30:19:457 -> 2552.00
16:30:19:457 -> 2590.00
16:30:19:457 -> 2666.00
16:30:19:457 -> 2613.00
16:30:19:457 -> 2650.00
16:30:19:457 -> 2663.00
16:30:19:457 -> 2673.00
16:30:19:457 -> 2616.00
16:30:19:457 -> 2617.00
16:30:19:457 -> 2646.00
16:30:19:457 -> 2664.00
16:30:19:457 -> 2684.00
16:30:19:457 -> 2666.00
16:30:19:457 -> 2646.00
16:30:19:457 -> 2603.00
16:30:19:457 -> 2577.00
16:30:19:457 -> 2561.00
16:30:19:457 -> 2613.00
16:30:19:457 -> 2641.00
16:30:19:457 -> 2643.00
16:30:19:457 -> 2641.00
16:30:19:457 -> 2624.00
16:30:19:457 -> 2669.00
16:30:19:457 -> 2637.00
16:30:19:457 -> 2680.00
16:30:19:457 -> 2638.00
16:30:19:472 -> 2599.00
16:30:19:472 -> 2626.00
16:30:19:472 -> 2631.00
16:30:19:472 -> 2667.00
16:30:19:472 -> 2569.00
16:30:19:472 -> 2605.00
16:30:19:472 -> 2660.00
16:30:19:472 -> 2583.00
16:30:19:472 -> 2463.00
16:30:19:472 -> 2580.00
16:30:19:472 -> 2648.00
16:30:19:472 -> 2736.00
16:30:19:479 -> 2689.00
16:30:19:479 -> 2589.00
16:30:19:479 -> 2641.00
16:30:19:479 -> 2679.00
16:30:19:479 -> 2597.00
16:30:19:479 -> 2640.00
16:30:19:485 -> 2633.00
16:30:19:485 -> 2701.00
16:30:19:485 -> 2700.00
16:30:19:485 -> 2669.00
16:30:19:485 -> 2632.00
16:30:19:485 -> 2612.00
16:30:19:487 -> 2593.00
16:30:19:488 -> 2543.00
16:30:19:489 -> 2570.00
16:30:19:490 -> 2652.00
16:30:19:491 -> 2682.00
16:30:19:493 -> 2662.00
16:30:19:494 -> 2603.00
16:30:19:495 -> 2644.00
16:30:19:496 -> 2686.00
16:30:19:497 -> 2667.00
16:30:19:498 -> 2615.00
16:30:19:500 -> 2655.00
16:30:19:501 -> 2634.00
16:30:19:502 -> 2601.00
16:30:19:503 -> 2634.00
16:30:19:510 -> 2629.00
16:30:19:510 -> 2617.00
16:30:19:510 -> 2632.00
16:30:19:510 -> 2518.00
16:30:19:510 -> 2625.00
16:30:19:538 -> 2593.00
16:30:19:538 -> 2575.00
16:30:19:538 -> 2638.00
16:30:19:538 -> 2691.00
16:30:19:538 -> 2650.00
16:30:19:538 -> 2665.00
16:30:19:538 -> 2706.00
16:30:19:538 -> 2672.00
16:30:19:538 -> 2653.00
16:30:19:538 -> 2640.00
16:30:19:538 -> 2552.00
16:30:19:538 -> 2558.00
16:30:19:538 -> 2559.00
16:30:19:538 -> 2578.00
16:30:19:538 -> 2617.00
16:30:19:538 -> 2568.00
16:30:19:538 -> 2634.00
16:30:19:538 -> 2634.00
16:30:19:538 -> 2617.00
16:30:19:538 -> 2622.00
16:30:19:538 -> 2643.00
16:30:19:538 -> 2668.00
16:30:19:550 -> 2676.00
16:30:19:550 -> 2630.00
16:30:19:550 -> 2587.00
16:30:19:550 -> 2572.00
16:30:19:550 -> 2585.00
16:30:19:550 -> 2574.00
16:30:19:550 -> 2593.00
16:30:19:550 -> 2574.00
16:30:19:550 -> 2624.00
16:30:19:550 -> 2692.00
16:30:19:550 -> 2624.00
16:30:19:550 -> 2705.00
16:30:19:554 -> 2654.00
16:30:19:554 -> 2688.00
16:30:19:554 -> 2709.00
16:30:19:555 -> 2640.00
16:30:19:556 -> 2631.00
16:30:19:557 -> 2681.00
16:30:19:558 -> 2665.00
16:30:19:559 -> 2677.00
16:30:19:560 -> 2661.00
16:30:19:562 -> 2618.00
16:30:19:563 -> 2529.00
16:30:19:564 -> 2550.00
16:30:19:565 -> 2632.00
16:30:19:566 -> 2602.00
16:30:19:568 -> 2578.00
16:30:19:570 -> 2624.00
16:30:19:570 -> 2633.00
16:30:19:577 -> 2682.00
16:30:19:577 -> 2683.00
16:30:19:577 -> 2654.00
16:30:19:577 -> 2639.00
16:30:19:577 -> 2601.00
16:30:19:587 -> 2670.00
16:30:19:587 -> 2670.00
16:30:19:587 -> 2655.00
16:30:19:587 -> 2666.00
16:30:19:587 -> 2614.00
16:30:19:587 -> 2646.00
16:30:19:587 -> 2630.00
16:30:19:587 -> 2561.00
16:30:19:587 -> 2578.00
16:30:19:588 -> 2585.00
16:30:19:593 -> 2645.00
16:30:19:593 -> 2617.00
16:30:19:593 -> 2619.00
16:30:19:593 -> 2663.00
16:30:19:594 -> 2601.00
16:30:19:595 -> 2671.00
16:30:19:596 -> 2628.00
16:30:19:597 -> 2584.00
16:30:19:599 -> 2629.00
16:30:19:601 -> 2652.00
16:30:19:601 -> 2697.00
16:30:19:602 -> 2628.00
16:30:19:603 -> 2656.00
16:30:19:604 -> 2630.00
16:30:19:610 -> 2627.00
16:30:19:610 -> 2545.00
16:30:19:610 -> 2566.00
16:30:19:610 -> 2629.00
16:30:19:615 -> 2574.00
16:30:19:615 -> 2657.00
16:30:19:615 -> 2582.00
16:30:19:615 -> 2633.00
16:30:19:615 -> 2641.00
16:30:19:622 -> 2633.00
16:30:19:622 -> 2623.00
16:30:19:622 -> 2555.00
16:30:19:622 -> 2591.00
16:30:19:622 -> 2611.00
16:30:19:622 -> 2659.00
16:30:19:628 -> 2630.00
16:30:19:628 -> 2623.00
16:30:19:628 -> 2653.00
16:30:19:628 -> 2653.00
16:30:19:629 -> 2651.00
16:30:19:630 -> 2645.00
16:30:19:634 -> 2668.00
16:30:19:634 -> 2661.00
16:30:19:634 -> 2644.00
16:30:19:635 -> 2641.00
16:30:19:637 -> 2642.00
16:30:19:637 -> 2688.00
16:30:19:638 -> 2663.00
16:30:19:639 -> 2567.00
16:30:19:644 -> 2598.00
16:30:19:646 -> 2641.00
16:30:19:646 -> 2600.00
16:30:19:646 -> 2620.00
16:30:19:646 -> 2673.00
16:30:19:646 -> 2632.00
16:30:19:647 -> 2622.00
16:30:19:648 -> 2585.00
16:30:19:650 -> 2603.00
16:30:19:652 -> 2647.00
16:30:19:652 -> 2615.00
16:30:19:653 -> 2672.00
16:30:19:654 -> 2631.00
16:30:19:656 -> 2685.00
16:30:19:657 -> 2720.00
16:30:19:658 -> 2682.00
16:30:19:659 -> 2656.00
16:30:19:662 -> 2696.00
16:30:19:662 -> 2661.00
16:30:19:664 -> 2629.00
16:30:19:677 -> 2564.00
16:30:19:677 -> 2580.00
16:30:19:677 -> 2589.00
16:30:19:677 -> 2643.00
16:30:19:677 -> 2639.00
16:30:19:677 -> 2664.00
16:30:19:677 -> 2611.00
16:30:19:677 -> 2558.00
16:30:19:677 -> 2630.00
16:30:19:677 -> 2676.00
16:30:19:677 -> 2573.00
16:30:19:677 -> 2587.00
16:30:19:679 -> 2619.00
16:30:19:681 -> 2621.00
16:30:19:681 -> 2684.00
16:30:19:682 -> 2674.00
16:30:19:683 -> 2629.00
16:30:19:684 -> 2628.00
16:30:19:685 -> 2632.00
16:30:19:687 -> 2599.00
16:30:19:688 -> 2546.00
16:30:19:689 -> 2593.00
16:30:19:690 -> 2539.00
16:30:19:692 -> 2587.00
16:30:19:694 -> 2622.00
16:30:19:694 -> 2635.00
16:30:19:696 -> 2534.00
16:30:19:696 -> 2594.00
16:30:19:697 -> 2699.00
16:30:19:698 -> 2675.00
16:30:19:700 -> 2677.00
16:30:19:701 -> 2633.00
16:30:19:702 -> 2638.00
16:30:19:703 -> 2622.00
16:30:19:704 -> 2687.00
16:30:19:706 -> 2660.00
16:30:19:708 -> 2620.00
16:30:19:709 -> 2623.00
16:30:19:709 -> 2623.00
16:30:19:718 -> 2650.00
16:30:19:718 -> 2670.00
16:30:19:718 -> 2722.00
16:30:19:718 -> 2643.00
16:30:19:718 -> 2557.00
16:30:19:718 -> 2661.00
16:30:19:721 -> 2662.00
16:30:19:721 -> 2640.00
16:30:19:721 -> 2686.00
16:30:19:721 -> 2650.00
16:30:19:722 -> 2645.00
16:30:19:724 -> 2615.00
16:30:19:725 -> 2616.00
16:30:19:726 -> 2586.00
16:30:19:727 -> 2559.00
16:30:19:728 -> 2582.00
16:30:19:729 -> 2612.00
16:30:19:731 -> 2651.00
16:30:19:732 -> 2673.00
16:30:19:733 -> 2697.00
16:30:19:734 -> 2676.00
16:30:19:735 -> 2622.00
16:30:19:738 -> 2646.00
16:30:19:738 -> 2614.00
16:30:19:739 -> 2635.00
16:30:19:740 -> 2664.00
16:30:19:741 -> 2691.00
16:30:19:742 -> 2628.00
16:30:19:744 -> 2610.00
16:30:19:745 -> 2583.00
16:30:19:746 -> 2560.00
16:30:19:747 -> 2598.00
16:30:19:748 -> 2650.00
16:30:19:750 -> 2618.00
16:30:19:751 -> 2645.00
16:30:19:752 -> 2637.00
16:30:19:765 -> 2650.00
16:30:19:765 -> 2718.00
16:30:19:765 -> 2729.00
16:30:19:765 -> 2660.00
16:30:19:765 -> 2553.00
16:30:19:765 -> 2616.00
16:30:19:765 -> 2659.00
16:30:19:765 -> 2689.00
16:30:19:765 -> 2652.00
16:30:19:765 -> 2597.00
16:30:19:769 -> 2586.00
16:30:19:769 -> 2653.00
16:30:19:769 -> 2579.00
16:30:19:770 -> 2623.00
16:30:19:770 -> 2636.00
16:30:19:771 -> 2660.00
16:30:19:772 -> 2649.00
16:30:19:773 -> 2661.00
16:30:19:775 -> 2662.00
16:30:19:776 -> 2629.00
16:30:19:777 -> 2638.00
16:30:19:778 -> 2608.00
16:30:19:779 -> 2609.00
16:30:19:781 -> 2598.00
16:30:19:782 -> 2629.00
16:30:19:783 -> 2637.00
16:30:19:784 -> 2568.00
16:30:19:785 -> 2623.00
16:30:19:787 -> 2649.00
16:30:19:788 -> 2709.00
16:30:19:789 -> 2645.00
16:30:19:790 -> 2642.00
16:30:19:791 -> 2630.00
16:30:19:792 -> 2643.00
16:30:19:794 -> 2622.00
16:30:19:795 -> 2583.00
16:30:19:796 -> 2656.00
16:30:19:797 -> 2653.00
16:30:19:798 -> 2609.00
16:30:19:800 -> 2635.00
16:30:19:801 -> 2589.00
16:30:19:803 -> 2618.00
16:30:19:805 -> 2599.00
16:30:19:805 -> 2579.00
16:30:19:809 -> 2507.00
16:30:19:809 -> 2544.00
16:30:19:809 -> 2657.00
16:30:19:815 -> 2669.00
16:30:19:815 -> 2692.00
16:30:19:815 -> 2703.00
16:30:19:815 -> 2683.00
16:30:19:815 -> 2523.00
16:30:19:816 -> 2582.00
16:30:19:823 -> 2709.00
16:30:19:823 -> 2687.00
16:30:19:823 -> 2697.00
16:30:19:823 -> 2672.00
16:30:19:823 -> 2647.00
16:30:19:841 -> 2692.00
16:30:19:841 -> 2665.00
16:30:19:841 -> 2621.00
16:30:19:841 -> 2619.00
16:30:19:841 -> 2588.00
16:30:19:841 -> 2568.00
16:30:19:841 -> 2532.00
16:30:19:854 -> 2615.00
16:30:19:854 -> 2596.00
16:30:19:854 -> 2594.00
16:30:19:854 -> 2625.00
16:30:19:854 -> 2656.00
16:30:19:854 -> 2662.00
16:30:19:854 -> 2688.00
16:30:19:854 -> 2588.00
16:30:19:854 -> 2568.00
16:30:19:854 -> 2671.00
16:30:19:858 -> 2723.00
16:30:19:858 -> 2720.00
16:30:19:858 -> 2604.00
16:30:19:858 -> 2636.00
16:30:19:858 -> 2631.00
16:30:19:858 -> 2656.00
16:30:19:858 -> 2602.00
16:30:19:858 -> 2622.00
16:30:19:858 -> 2640.00
16:30:19:858 -> 2594.00
16:30:19:858 -> 2626.00
16:30:19:858 -> 2583.00
16:30:19:858 -> 2577.00
16:30:19:859 -> 2727.00
16:30:19:859 -> 2652.00
16:30:19:860 -> 2641.00
16:30:19:861 -> 2649.00
16:30:19:863 -> 2651.00
16:30:19:864 -> 2687.00
16:30:19:865 -> 2643.00
16:30:19:866 -> 2613.00
16:30:19:867 -> 2598.00
16:30:19:869 -> 2597.00
16:30:19:870 -> 2580.00
16:30:19:872 -> 2587.00
16:30:19:872 -> 2643.00
16:30:19:873 -> 2705.00
16:30:19:875 -> 2568.00
16:30:19:882 -> 2624.00
16:30:19:882 -> 2561.00
16:30:19:882 -> 2618.00
16:30:19:882 -> 2654.00
16:30:19:882 -> 2679.00
16:30:19:909 -> 2678.00
16:30:19:909 -> 2637.00
16:30:19:909 -> 2669.00
16:30:19:909 -> 2604.00
16:30:19:909 -> 2644.00
16:30:19:909 -> 2629.00
16:30:19:920 -> 2615.00
16:30:19:920 -> 2659.00
16:30:19:920 -> 2721.00
16:30:19:920 -> 2616.00
16:30:19:920 -> 2513.00
16:30:19:920 -> 2554.00
16:30:19:920 -> 2609.00
16:30:19:920 -> 2654.00
16:30:19:920 -> 2631.00
16:30:19:920 -> 2598.00
16:30:19:920 -> 2587.00
16:30:19:920 -> 2653.00
16:30:19:920 -> 2697.00
16:30:19:920 -> 2702.00
16:30:19:920 -> 2666.00
16:30:19:920 -> 2690.00
16:30:19:920 -> 2667.00
16:30:19:920 -> 2630.00
16:30:19:923 -> 2640.00
16:30:19:923 -> 2692.00
16:30:19:923 -> 2658.00
16:30:19:923 -> 2634.00
16:30:19:923 -> 2615.00
16:30:19:923 -> 2662.00
16:30:19:923 -> 2621.00
16:30:19:923 -> 2662.00
16:30:19:923 -> 2665.00
16:30:19:923 -> 2656.00
16:30:19:923 -> 2719.00
16:30:19:925 -> 2661.00
16:30:19:925 -> 2550.00
16:30:19:926 -> 2535.00
16:30:19:927 -> 2476.00
16:30:19:928 -> 2635.00
16:30:19:929 -> 2622.00
16:30:19:930 -> 2630.00
16:30:19:932 -> 2641.00
16:30:19:933 -> 2624.00
16:30:19:934 -> 2653.00
16:30:19:935 -> 2677.00
16:30:19:936 -> 2664.00
16:30:19:938 -> 2622.00
16:30:19:939 -> 2623.00
16:30:19:940 -> 2727.00
16:30:19:941 -> 2695.00
16:30:19:942 -> 2662.00
16:30:19:944 -> 2613.00
16:30:19:945 -> 2603.00
16:30:19:946 -> 2609.00
16:30:19:947 -> 2673.00
16:30:19:949 -> 2670.00
16:30:19:950 -> 2600.00
16:30:19:951 -> 2624.00
16:30:19:952 -> 2639.00
16:30:19:954 -> 2590.00
16:30:19:956 -> 2617.00
16:30:19:992 -> 2587.00
16:30:19:992 -> 2584.00
16:30:19:992 -> 2605.00
16:30:19:992 -> 2622.00
16:30:19:992 -> 2639.00
16:30:19:992 -> 2636.00
16:30:19:992 -> 2655.00
16:30:19:992 -> 2621.00
16:30:19:992 -> 2677.00
16:30:19:992 -> 2597.00
16:30:19:992 -> 2584.00
16:30:19:992 -> 2603.00
16:30:19:992 -> 2645.00
16:30:19:992 -> 2624.00
16:30:19:992 -> 2615.00
16:30:19:992 -> 2576.00
16:30:19:992 -> 2627.00
16:30:19:992 -> 2622.00
16:30:19:992 -> 2636.00
16:30:19:992 -> 2707.00
16:30:19:992 -> 2682.00
16:30:19:992 -> 2626.00
16:30:19:992 -> 2642.00
16:30:19:992 -> 2708.00
16:30:19:992 -> 2620.00
16:30:19:992 -> 2594.00
16:30:19:992 -> 2533.00
16:30:19:992 -> 2590.00
16:30:19:992 -> 2641.00
16:30:19:992 -> 2567.00
16:30:19:992 -> 2661.00
16:30:20:023 -> 2603.00
16:30:20:023 -> 2715.00
16:30:20:023 -> 2710.00
16:30:20:023 -> 2656.00
16:30:20:023 -> 2595.00
16:30:20:023 -> 2617.00
16:30:20:023 -> 2632.00
16:30:20:023 -> 2668.00
16:30:20:023 -> 2676.00
16:30:20:023 -> 2690.00
16:30:20:023 -> 2667.00
16:30:20:023 -> 2696.00
16:30:20:023 -> 2607.00
16:30:20:023 -> 2622.00
16:30:20:023 -> 2692.00
16:30:20:023 -> 2669.00
16:30:20:023 -> 2645.00
16:30:20:023 -> 2583.00
16:30:20:023 -> 2614.00
16:30:20:023 -> 2648.00
16:30:20:023 -> 2647.00
16:30:20:023 -> 2642.00
16:30:20:023 -> 2568.00
16:30:20:023 -> 2647.00
16:30:20:023 -> 2680.00
16:30:20:023 -> 2687.00
16:30:20:037 -> 2676.00
16:30:20:037 -> 2645.00
16:30:20:037 -> 2604.00
16:30:20:037 -> 2651.00
16:30:20:037 -> 2661.00
16:30:20:037 -> 2655.00
16:30:20:037 -> 2643.00
16:30:20:037 -> 2658.00
16:30:20:037 -> 2609.00
16:30:20:037 -> 2568.00
16:30:20:037 -> 2660.00
16:30:20:037 -> 2710.00
16:30:20:085 -> 2649.00
16:30:20:085 -> 2634.00
16:30:20:085 -> 2634.00
16:30:20:085 -> 2617.00
16:30:20:085 -> 2651.00
16:30:20:085 -> 2611.00
16:30:20:085 -> 2549.00
16:30:20:085 -> 2601.00
16:30:20:085 -> 2653.00
16:30:20:085 -> 2591.00
16:30:20:085 -> 2591.00
16:30:20:085 -> 2579.00
16:30:20:085 -> 2506.00
16:30:20:085 -> 2500.00
16:30:20:085 -> 2630.00
16:30:20:085 -> 2639.00
16:30:20:085 -> 2694.00
16:30:20:085 -> 2707.00
16:30:20:085 -> 2664.00
16:30:20:085 -> 2625.00
16:30:20:085 -> 2658.00
16:30:20:085 -> 2659.00
16:30:20:085 -> 2680.00
16:30:20:085 -> 2699.00
16:30:20:085 -> 2672.00
16:30:20:085 -> 2687.00
16:30:20:085 -> 2676.00
16:30:20:085 -> 2566.00
16:30:20:085 -> 2626.00
16:30:20:085 -> 2625.00
16:30:20:085 -> 2602.00
16:30:20:085 -> 2674.00
16:30:20:085 -> 2654.00
16:30:20:085 -> 2667.00
16:30:20:085 -> 2636.00
16:30:20:085 -> 2583.00
16:30:20:085 -> 2667.00
16:30:20:085 -> 2611.00
16:30:20:085 -> 2623.00
16:30:20:085 -> 2635.00
16:30:20:097 -> 2582.00
16:30:20:097 -> 2584.00
16:30:20:097 -> 2633.00
16:30:20:097 -> 2661.00
16:30:20:097 -> 2625.00
16:30:20:097 -> 2654.00
16:30:20:097 -> 2671.00
16:30:20:097 -> 2715.00
16:30:20:097 -> 2701.00
16:30:20:097 -> 2660.00
16:30:20:097 -> 2633.00
16:30:20:101 -> 2656.00
16:30:20:101 -> 2625.00
16:30:20:108 -> 2610.00
16:30:20:108 -> 2603.00
16:30:20:108 -> 2620.00
16:30:20:108 -> 2585.00
16:30:20:108 -> 2624.00
16:30:20:108 -> 2646.00
16:30:20:117 -> 2637.00
16:30:20:117 -> 2702.00
16:30:20:117 -> 2599.00
16:30:20:117 -> 2637.00
16:30:20:117 -> 2674.00
16:30:20:117 -> 2659.00
16:30:20:117 -> 2608.00
16:30:20:117 -> 2641.00
16:30:20:123 -> 2683.00
16:30:20:123 -> 2673.00
16:30:20:123 -> 2615.00
16:30:20:123 -> 2615.00
16:30:20:123 -> 2601.00
16:30:20:124 -> 2605.00
16:30:20:125 -> 2655.00
16:30:20:126 -> 2732.00
16:30:20:127 -> 2629.00
16:30:20:128 -> 2600.00
16:30:20:129 -> 2564.00
16:30:20:130 -> 2563.00
16:30:20:132 -> 2607.00
16:30:20:133 -> 2701.00
16:30:20:134 -> 2648.00
16:30:20:135 -> 2667.00
16:30:20:136 -> 2654.00
16:30:20:138 -> 2617.00
16:30:20:139 -> 2625.00
16:30:20:140 -> 2705.00
16:30:20:141 -> 2629.00
16:30:20:142 -> 2616.00
16:30:20:144 -> 2585.00
16:30:20:145 -> 2566.00
16:30:20:146 -> 2604.00
16:30:20:147 -> 2727.00
16:30:20:148 -> 2662.00
16:30:20:150 -> 2614.00
16:30:20:151 -> 2545.00
16:30:20:152 -> 2613.00
16:30:20:154 -> 2654.00
16:30:20:154 -> 2626.00
16:30:20:156 -> 2650.00
16:30:20:157 -> 2638.00
16:30:20:158 -> 2625.00
16:30:20:159 -> 2663.00
16:30:20:160 -> 2636.00
16:30:20:165 -> 2658.00
16:30:20:165 -> 2717.00
16:30:20:165 -> 2651.00
16:30:20:165 -> 2651.00
16:30:20:171 -> 2590.00
16:30:20:171 -> 2591.00
16:30:20:171 -> 2605.00
16:30:20:178 -> 2619.00
16:30:20:178 -> 2600.00
16:30:20:178 -> 2630.00
16:30:20:178 -> 2655.00
16:30:20:178 -> 2666.00
16:30:20:178 -> 2658.00
16:30:20:178 -> 2679.00
16:30:20:178 -> 2708.00
16:30:20:184 -> 2765.00
16:30:20:184 -> 2717.00
16:30:20:184 -> 2719.00
16:30:20:184 -> 2585.00
16:30:20:188 -> 2679.00
16:30:20:188 -> 2692.00
16:30:20:188 -> 2643.00
16:30:20:188 -> 2552.00
16:30:20:189 -> 2595.00
16:30:20:190 -> 2665.00
16:30:20:191 -> 2678.00
16:30:20:192 -> 2621.00
16:30:20:194 -> 2671.00
16:30:20:195 -> 2722.00
16:30:20:196 -> 2752.00
16:30:20:197 -> 2716.00
16:30:20:198 -> 2631.00
16:30:20:200 -> 2632.00
16:30:20:201 -> 2649.00
16:30:20:202 -> 2608.00
16:30:20:203 -> 2669.00
16:30:20:204 -> 2671.00
16:30:20:206 -> 2631.00
16:30:20:207 -> 2576.00
16:30:20:208 -> 2656.00
16:30:20:209 -> 2611.00
16:30:20:210 -> 2649.00
16:30:20:211 -> 2598.00
16:30:20:213 -> 2609.00
16:30:20:214 -> 2626.00
16:30:20:215 -> 2632.00
16:30:20:217 -> 2674.00
16:30:20:217 -> 2615.00
16:30:20:219 -> 2617.00
16:30:20:220 -> 2655.00
16:30:20:221 -> 2657.00
16:30:20:222 -> 2668.00
16:30:20:223 -> 2669.00
16:30:20:225 -> 2644.00
16:30:20:226 -> 2591.00
16:30:20:227 -> 2638.00
16:30:20:228 -> 2641.00
16:30:20:229 -> 2642.00
16:30:20:230 -> 2641.00
16:30:20:232 -> 2562.00
16:30:20:233 -> 2640.00
16:30:20:234 -> 2585.00
16:30:20:235 -> 2770.00
16:30:20:236 -> 2904.00
16:30:20:238 -> 2589.00
16:30:20:239 -> 2505.00
16:30:20:240 -> 2613.00
16:30:20:241 -> 2675.00
16:30:20:242 -> 2652.00
16:30:20:244 -> 2625.00
16:30:20:253 -> 2634.00
16:30:20:253 -> 2701.00
16:30:20:253 -> 2709.00
16:30:20:253 -> 2685.00
16:30:20:253 -> 2641.00
16:30:20:253 -> 2540.00
16:30:20:253 -> 2555.00
16:30:20:254 -> 2581.00
16:30:20:254 -> 2640.00
16:30:20:264 -> 2695.00
16:30:20:264 -> 2680.00
16:30:20:264 -> 2724.00
16:30:20:264 -> 2678.00
16:30:20:264 -> 2665.00
16:30:20:264 -> 2662.00
16:30:20:264 -> 2658.00
16:30:20:268 -> 2656.00
16:30:20:268 -> 2590.00
16:30:20:269 -> 2591.00
16:30:20:269 -> 2641.00
16:30:20:269 -> 2649.00
16:30:20:270 -> 2666.00
16:30:20:271 -> 2641.00
16:30:20:272 -> 2614.00
16:30:20:273 -> 2626.00
16:30:20:275 -> 2672.00
16:30:20:288 -> 2669.00
16:30:20:288 -> 2711.00
16:30:20:288 -> 2641.00
16:30:20:288 -> 2632.00
16:30:20:288 -> 2645.00
16:30:20:288 -> 2660.00
16:30:20:288 -> 2624.00
16:30:20:288 -> 2610.00
16:30:20:288 -> 2670.00
16:30:20:288 -> 2659.00
16:30:20:288 -> 2625.00
16:30:20:292 -> 2634.00
16:30:20:292 -> 2674.00
16:30:20:292 -> 2773.00
16:30:20:301 -> 2653.00
16:30:20:301 -> 2613.00
16:30:20:301 -> 2513.00
16:30:20:301 -> 2531.00
16:30:20:301 -> 2741.00
16:30:20:301 -> 2674.00
16:30:20:301 -> 2632.00
16:30:20:301 -> 2656.00
16:30:20:302 -> 2654.00
16:30:20:303 -> 2648.00
16:30:20:304 -> 2667.00
16:30:20:306 -> 2611.00
16:30:20:308 -> 2600.00
16:30:20:308 -> 2633.00
16:30:20:310 -> 2634.00
16:30:20:311 -> 2670.00
16:30:20:314 -> 2682.00
16:30:20:314 -> 2710.00
16:30:20:314 -> 2697.00
16:30:20:316 -> 2621.00
16:30:20:317 -> 2626.00
16:30:20:323 -> 2639.00
16:30:20:323 -> 2660.00
16:30:20:323 -> 2674.00
16:30:20:323 -> 2697.00
16:30:20:323 -> 2709.00
16:30:20:324 -> 2684.00
16:30:20:326 -> 2585.00
16:30:20:326 -> 2606.00
16:30:20:327 -> 2576.00
16:30:20:328 -> 2634.00
16:30:20:329 -> 2605.00
16:30:20:330 -> 2609.00
16:30:20:332 -> 2656.00
16:30:20:333 -> 2656.00
16:30:20:334 -> 2660.00
16:30:20:335 -> 2619.00
16:30:20:336 -> 2650.00
16:30:20:365 -> 2696.00
16:30:20:365 -> 2690.00
16:30:20:365 -> 2698.00
16:30:20:365 -> 2707.00
16:30:20:365 -> 2711.00
16:30:20:365 -> 2725.00
16:30:20:365 -> 2704.00
16:30:20:365 -> 2592.00
16:30:20:365 -> 2616.00
16:30:20:365 -> 2593.00
16:30:20:365 -> 2621.00
16:30:20:374 -> 2648.00
16:30:20:374 -> 2595.00
16:30:20:374 -> 2589.00
16:30:20:374 -> 2558.00
16:30:20:374 -> 2548.00
16:30:20:374 -> 2619.00
16:30:20:374 -> 2686.00
16:30:20:374 -> 2706.00
16:30:20:374 -> 2715.00
16:30:20:374 -> 2646.00
16:30:20:374 -> 2686.00
16:30:20:374 -> 2680.00
16:30:20:374 -> 2654.00
16:30:20:374 -> 2687.00
16:30:20:374 -> 2638.00
16:30:20:374 -> 2615.00
16:30:20:374 -> 2619.00
16:30:20:374 -> 2647.00
16:30:20:374 -> 2677.00
16:30:20:374 -> 2616.00
16:30:20:377 -> 2561.00
16:30:20:377 -> 2572.00
16:30:20:380 -> 2615.00
16:30:20:380 -> 2635.00
16:30:20:380 -> 2702.00
16:30:20:385 -> 2706.00
16:30:20:385 -> 2694.00
16:30:20:385 -> 2644.00
16:30:20:385 -> 2557.00
16:30:20:385 -> 2661.00
16:30:20:391 -> 2620.00
16:30:20:391 -> 2618.00
16:30:20:391 -> 2618.00
16:30:20:391 -> 2646.00
16:30:20:400 -> 2666.00
16:30:20:400 -> 2672.00
16:30:20:400 -> 2669.00
16:30:20:400 -> 2630.00
16:30:20:400 -> 2577.00
16:30:20:400 -> 2561.00
16:30:20:400 -> 2674.00
16:30:20:400 -> 2702.00
16:30:20:439 -> 2681.00
16:30:20:439 -> 2625.00
16:30:20:439 -> 2653.00
16:30:20:439 -> 2645.00
16:30:20:439 -> 2669.00
16:30:20:439 -> 2603.00
16:30:20:439 -> 2665.00
16:30:20:439 -> 2682.00
16:30:20:441 -> 2643.00
16:30:20:441 -> 2638.00
16:30:20:441 -> 2622.00
16:30:20:441 -> 2642.00
16:30:20:441 -> 2661.00
16:30:20:441 -> 2668.00
16:30:20:441 -> 2707.00
16:30:20:441 -> 2637.00
16:30:20:441 -> 2652.00
16:30:20:441 -> 2675.00
16:30:20:441 -> 2703.00
16:30:20:441 -> 2621.00
16:30:20:441 -> 2578.00
16:30:20:441 -> 2611.00
16:30:20:441 -> 2595.00
16:30:20:441 -> 2595.00
16:30:20:441 -> 2593.00
16:30:20:441 -> 2641.00
16:30:20:441 -> 2635.00
16:30:20:441 -> 2657.00
16:30:20:441 -> 2632.00
16:30:20:441 -> 2668.00
16:30:20:441 -> 2779.00
16:30:20:441 -> 2762.00
16:30:20:441 -> 2685.00
16:30:20:441 -> 2673.00
16:30:20:442 -> 2664.00
16:30:20:449 -> 2637.00
16:30:20:449 -> 2626.00
16:30:20:449 -> 2604.00
16:30:20:449 -> 2574.00
16:30:20:449 -> 2585.00
16:30:20:449 -> 2674.00
16:30:20:458 -> 2658.00
16:30:20:458 -> 2697.00
16:30:20:458 -> 2580.00
16:30:20:458 -> 2629.00
16:30:20:458 -> 2664.00
16:30:20:458 -> 2668.00
16:30:20:458 -> 2689.00
16:30:20:458 -> 2710.00
16:30:20:476 -> 2635.00
16:30:20:476 -> 2626.00
16:30:20:476 -> 2608.00
16:30:20:476 -> 2671.00
16:30:20:476 -> 2696.00
16:30:20:476 -> 2656.00
16:30:20:476 -> 2639.00
16:30:20:476 -> 2640.00
16:30:20:476 -> 2603.00
16:30:20:476 -> 2619.00
16:30:20:487 -> 2625.00
16:30:20:487 -> 2646.00
16:30:20:487 -> 2599.00
16:30:20:487 -> 2564.00
16:30:20:487 -> 2652.00
16:30:20:487 -> 2723.00
16:30:20:487 -> 2685.00
16:30:20:487 -> 2674.00
16:30:20:487 -> 2721.00
16:30:20:487 -> 2619.00
16:30:20:487 -> 2649.00
16:30:20:495 -> 2636.00
16:30:20:495 -> 2583.00
16:30:20:495 -> 2619.00
16:30:20:495 -> 2539.00
16:30:20:495 -> 2605.00
16:30:20:495 -> 2697.00
16:30:20:495 -> 2697.00
16:30:20:495 -> 2617.00
16:30:20:495 -> 2659.00
16:30:20:495 -> 2614.00
16:30:20:500 -> 2665.00
16:30:20:500 -> 2701.00
16:30:20:500 -> 2674.00
16:30:20:500 -> 2661.00
16:30:20:503 -> 2672.00
16:30:20:503 -> 2644.00
16:30:20:503 -> 2617.00
16:30:20:506 -> 2612.00
16:30:20:506 -> 2577.00
16:30:20:510 -> 2641.00
16:30:20:510 -> 2633.00
16:30:20:510 -> 2611.00
16:30:20:510 -> 2674.00
16:30:20:516 -> 2576.00
16:30:20:516 -> 2616.00
16:30:20:516 -> 2558.00
16:30:20:516 -> 2653.00
16:30:20:518 -> 2743.00
16:30:20:518 -> 2736.00
16:30:20:519 -> 2729.00
16:30:20:520 -> 2705.00
16:30:20:521 -> 2676.00
16:30:20:522 -> 2642.00
16:30:20:523 -> 2644.00
16:30:20:530 -> 2641.00
16:30:20:530 -> 2595.00
16:30:20:530 -> 2540.00
16:30:20:530 -> 2658.00
16:30:20:530 -> 2660.00
16:30:20:539 -> 2653.00
16:30:20:539 -> 2631.00
16:30:20:539 -> 2714.00
16:30:20:539 -> 2683.00
16:30:20:539 -> 2710.00
16:30:20:539 -> 2632.00
16:30:20:539 -> 2580.00
16:30:20:549 -> 2570.00
16:30:20:549 -> 2634.00
16:30:20:549 -> 2669.00
16:30:20:549 -> 2621.00
16:30:20:549 -> 2654.00
16:30:20:549 -> 2647.00
16:30:20:549 -> 2554.00
16:30:20:549 -> 2590.00
16:30:20:549 -> 2582.00
16:30:20:552 -> 2660.00
16:30:20:552 -> 2654.00
16:30:20:552 -> 2699.00
16:30:20:554 -> 2683.00
16:30:20:559 -> 2619.00
16:30:20:559 -> 2670.00
16:30:20:559 -> 2703.00
16:30:20:559 -> 2606.00
16:30:20:565 -> 2602.00
16:30:20:565 -> 2633.00
16:30:20:565 -> 2671.00
16:30:20:565 -> 2618.00
16:30:20:565 -> 2633.00
16:30:20:566 -> 2615.00
16:30:20:568 -> 2601.00
16:30:20:568 -> 2594.00
16:30:20:569 -> 2664.00
16:30:20:570 -> 2657.00
16:30:20:571 -> 2716.00
16:30:20:572 -> 2647.00
16:30:20:573 -> 2629.00
16:30:20:575 -> 2630.00
16:30:20:576 -> 2660.00
16:30:20:637 -> 2654.00
16:30:20:637 -> 2659.00
16:30:20:637 -> 2645.00
16:30:20:637 -> 2655.00
16:30:20:637 -> 2680.00
16:30:20:637 -> 2651.00
16:30:20:637 -> 2635.00
16:30:20:637 -> 2669.00
16:30:20:679 -> 2663.00
16:30:20:679 -> 2625.00
16:30:20:679 -> 2587.00
16:30:20:679 -> 2618.00
16:30:20:679 -> 2657.00
16:30:20:679 -> 2679.00
16:30:20:679 -> 2666.00
16:30:20:679 -> 2605.00
16:30:20:679 -> 2615.00
16:30:20:679 -> 2673.00
16:30:20:679 -> 2673.00
16:30:20:679 -> 2674.00
16:30:20:679 -> 2652.00
16:30:20:679 -> 2651.00
16:30:20:679 -> 2623.00
16:30:20:679 -> 2652.00
16:30:20:679 -> 2660.00
16:30:20:679 -> 2637.00
16:30:20:679 -> 2698.00
16:30:20:679 -> 2584.00
16:30:20:679 -> 2628.00
16:30:20:679 -> 2628.00
16:30:20:679 -> 2634.00
16:30:20:679 -> 2558.00
16:30:20:679 -> 2618.00
16:30:20:679 -> 2657.00
16:30:20:679 -> 2601.00
16:30:20:679 -> 2619.00
16:30:20:679 -> 2651.00
16:30:20:679 -> 2692.00
16:30:20:679 -> 2740.00
16:30:20:679 -> 2710.00
16:30:20:679 -> 2691.00
16:30:20:679 -> 2615.00
16:30:20:679 -> 2639.00
16:30:20:679 -> 2643.00
16:30:20:679 -> 2655.00
16:30:20:679 -> 2679.00
16:30:20:679 -> 2688.00
16:30:20:679 -> 2644.00
16:30:20:679 -> 2658.00
16:30:20:679 -> 2628.00
16:30:20:679 -> 2695.00
16:30:20:679 -> 2695.00
16:30:20:679 -> 2664.00
16:30:20:679 -> 2637.00
16:30:20:679 -> 2695.00
16:30:20:679 -> 2624.00
16:30:20:679 -> 2593.00
16:30:20:679 -> 2590.00
16:30:20:679 -> 2581.00
16:30:20:679 -> 2616.00
16:30:20:679 -> 2578.00
16:30:20:679 -> 2612.00
16:30:20:679 -> 2650.00
16:30:20:679 -> 2670.00
16:30:20:679 -> 2645.00
16:30:20:679 -> 2638.00
16:30:20:679 -> 2650.00
16:30:20:679 -> 2645.00
16:30:20:679 -> 2700.00
16:30:20:679 -> 2654.00
16:30:20:679 -> 2668.00
16:30:20:679 -> 2655.00
16:30:20:679 -> 2620.00
16:30:20:679 -> 2652.00
16:30:20:679 -> 2642.00
16:30:20:679 -> 2601.00
16:30:20:679 -> 2562.00
16:30:20:679 -> 2579.00
16:30:20:679 -> 2635.00
16:30:20:679 -> 2680.00
16:30:20:709 -> 2671.00
16:30:20:709 -> 2663.00
16:30:20:709 -> 2633.00
16:30:20:709 -> 2670.00
16:30:20:709 -> 2693.00
16:30:20:709 -> 2660.00
16:30:20:709 -> 2671.00
16:30:20:709 -> 2666.00
16:30:20:709 -> 2655.00
16:30:20:709 -> 2679.00
16:30:20:709 -> 2659.00
16:30:20:709 -> 2650.00
16:30:20:709 -> 2624.00
16:30:20:709 -> 2669.00
16:30:20:709 -> 2653.00
16:30:20:709 -> 2639.00
16:30:20:709 -> 2629.00
16:30:20:709 -> 2696.00
16:30:20:709 -> 2670.00
16:30:20:709 -> 2648.00
16:30:20:709 -> 2611.00
16:30:20:709 -> 2642.00
16:30:20:709 -> 2626.00
16:30:20:709 -> 2673.00
16:30:20:709 -> 2685.00
16:30:20:709 -> 2625.00
16:30:20:709 -> 2657.00
16:30:20:709 -> 2645.00
16:30:20:709 -> 2588.00
16:30:20:709 -> 2558.00
16:30:20:709 -> 2676.00
16:30:20:709 -> 2700.00
16:30:20:720 -> 2623.00
16:30:20:720 -> 2599.00
16:30:20:720 -> 2625.00
16:30:20:720 -> 2677.00
16:30:20:720 -> 2711.00
16:30:20:720 -> 2679.00
16:30:20:720 -> 2667.00
16:30:20:720 -> 2625.00
16:30:20:720 -> 2645.00
16:30:20:731 -> 2692.00
16:30:20:731 -> 2666.00
16:30:20:731 -> 2664.00
16:30:20:731 -> 2610.00
16:30:20:731 -> 2647.00
16:30:20:731 -> 2620.00
16:30:20:731 -> 2692.00
16:30:20:731 -> 2660.00
16:30:20:731 -> 2620.00
16:30:20:744 -> 2651.00
16:30:20:744 -> 2691.00
16:30:20:744 -> 2659.00
16:30:20:744 -> 2630.00
16:30:20:744 -> 2644.00
16:30:20:744 -> 2657.00
16:30:20:744 -> 2689.00
16:30:20:744 -> 2649.00
16:30:20:744 -> 2686.00
16:30:20:744 -> 2666.00
16:30:20:744 -> 2628.00
16:30:20:775 -> 2619.00
16:30:20:775 -> 2670.00
16:30:20:775 -> 2545.00
16:30:20:775 -> 2556.00
16:30:20:775 -> 2599.00
16:30:20:775 -> 2638.00
16:30:20:775 -> 2619.00
16:30:20:775 -> 2620.00
16:30:20:775 -> 2626.00
16:30:20:775 -> 2566.00
16:30:20:775 -> 2662.00
16:30:20:775 -> 2726.00
16:30:20:775 -> 2718.00
16:30:20:775 -> 2697.00
16:30:20:775 -> 2653.00
16:30:20:775 -> 2565.00
16:30:20:775 -> 2577.00
16:30:20:775 -> 2648.00
16:30:20:775 -> 2560.00
16:30:20:775 -> 2624.00
16:30:20:775 -> 2672.00
16:30:20:775 -> 2675.00
16:30:20:775 -> 2580.00
16:30:20:775 -> 2629.00
16:30:20:775 -> 2619.00
16:30:20:775 -> 2659.00
16:30:20:791 -> 2650.00
16:30:20:791 -> 2659.00
16:30:20:791 -> 2675.00
16:30:20:791 -> 2730.00
16:30:20:791 -> 2699.00
16:30:20:791 -> 2632.00
16:30:20:791 -> 2645.00
16:30:20:791 -> 2694.00
16:30:20:791 -> 2618.00
16:30:20:791 -> 2580.00
16:30:20:791 -> 2612.00
16:30:20:791 -> 2635.00
16:30:20:791 -> 2643.00
16:30:20:802 -> 2620.00
16:30:20:802 -> 2636.00
16:30:20:802 -> 2736.00
16:30:20:802 -> 2674.00
16:30:20:802 -> 2627.00
16:30:20:802 -> 2658.00
16:30:20:802 -> 2682.00
16:30:20:802 -> 2649.00
16:30:20:802 -> 2655.00
16:30:20:809 -> 2614.00
16:30:20:809 -> 2644.00
16:30:20:809 -> 2591.00
16:30:20:809 -> 2643.00
16:30:20:809 -> 2679.00
16:30:20:809 -> 2730.00
16:30:20:810 -> 2658.00
16:30:20:811 -> 2697.00
16:30:20:811 -> 2692.00
16:30:20:813 -> 2652.00
16:30:20:814 -> 2595.00
16:30:20:815 -> 2635.00
16:30:20:816 -> 2671.00
16:30:20:817 -> 2715.00
16:30:20:819 -> 2705.00
16:30:20:820 -> 2680.00
16:30:20:821 -> 2711.00
16:30:20:822 -> 2650.00
16:30:20:823 -> 2566.00
16:30:20:824 -> 2554.00
16:30:20:826 -> 2611.00
16:30:20:827 -> 2728.00
16:30:20:828 -> 2658.00
16:30:20:829 -> 2668.00
16:30:20:830 -> 2553.00
16:30:20:832 -> 2682.00
16:30:20:835 -> 2652.00
16:30:20:835 -> 2672.00
16:30:20:836 -> 2658.00
16:30:20:836 -> 2625.00
16:30:20:838 -> 2628.00
16:30:20:839 -> 2671.00
16:30:20:840 -> 2657.00
16:30:20:841 -> 2623.00
16:30:20:842 -> 2560.00
16:30:20:844 -> 2572.00
16:30:20:847 -> 2716.00
16:30:20:848 -> 2631.00
16:30:20:848 -> 2619.00
16:30:20:848 -> 2612.00
16:30:20:850 -> 2648.00
16:30:20:851 -> 2617.00
16:30:20:852 -> 2662.00
16:30:20:853 -> 2639.00
16:30:20:854 -> 2704.00
16:30:20:855 -> 2664.00
16:30:20:857 -> 2683.00
16:30:20:858 -> 2614.00
16:30:20:859 -> 2687.00
16:30:20:860 -> 2657.00
16:30:20:861 -> 2624.00
16:30:20:863 -> 2579.00
16:30:20:864 -> 2590.00
16:30:20:865 -> 2672.00
16:30:20:866 -> 2737.00
16:30:20:867 -> 2624.00
16:30:20:869 -> 2600.00
16:30:20:870 -> 2594.00
16:30:20:871 -> 2673.00
16:30:20:872 -> 2608.00
16:30:20:873 -> 2592.00
16:30:20:875 -> 2622.00
16:30:20:876 -> 2713.00
16:30:20:877 -> 2739.00
16:30:20:878 -> 2691.00
16:30:20:879 -> 2708.00
16:30:20:881 -> 2705.00
16:30:20:882 -> 2700.00
16:30:20:883 -> 2668.00
16:30:20:884 -> 2670.00
16:30:20:885 -> 2693.00
16:30:20:886 -> 2693.00
16:30:20:888 -> 2631.00
16:30:20:889 -> 2575.00
16:30:20:890 -> 2592.00
16:30:20:891 -> 2620.00
16:30:20:892 -> 2544.00
16:30:20:894 -> 2619.00
16:30:20:897 -> 2644.00
16:30:20:897 -> 2642.00
16:30:20:898 -> 2679.00
16:30:20:898 -> 2629.00
16:30:20:900 -> 2647.00
16:30:20:901 -> 2734.00
16:30:20:902 -> 2748.00
16:30:20:903 -> 2665.00
16:30:20:904 -> 2706.00
16:30:20:905 -> 2613.00
16:30:20:907 -> 2582.00
16:30:20:908 -> 2630.00
16:30:20:909 -> 2774.00
16:30:20:910 -> 2661.00
16:30:20:911 -> 2642.00
16:30:20:913 -> 2701.00
16:30:20:914 -> 2692.00
16:30:20:915 -> 2664.00
16:30:20:916 -> 2613.00
16:30:20:917 -> 2663.00
16:30:20:919 -> 2682.00
16:30:20:920 -> 2646.00
16:30:20:921 -> 2652.00
16:30:20:922 -> 2664.00
16:30:20:923 -> 2675.00
16:30:20:925 -> 2683.00
16:30:20:926 -> 2617.00
16:30:20:927 -> 2612.00
16:30:20:973 -> 2624.00
16:30:20:973 -> 2676.00
16:30:20:973 -> 2631.00
16:30:20:973 -> 2593.00
16:30:20:973 -> 2678.00
16:30:20:973 -> 2679.00
16:30:20:973 -> 2721.00
16:30:20:973 -> 2644.00
16:30:20:973 -> 2661.00
16:30:20:973 -> 2663.00
16:30:21:020 -> 2601.00
16:30:21:020 -> 2551.00
16:30:21:020 -> 2487.00
16:30:21:020 -> 2611.00
16:30:21:020 -> 2726.00
16:30:21:020 -> 2689.00
16:30:21:020 -> 2648.00
16:30:21:020 -> 2629.00
16:30:21:020 -> 2699.00
16:30:21:020 -> 2697.00
16:30:21:020 -> 2627.00
16:30:21:020 -> 2539.00
16:30:21:020 -> 2536.00
16:30:21:020 -> 2626.00
16:30:21:020 -> 2640.00
16:30:21:020 -> 2695.00
16:30:21:020 -> 2717.00
16:30:21:020 -> 2642.00
16:30:21:020 -> 2608.00
16:30:21:020 -> 2685.00
16:30:21:020 -> 2606.00
16:30:21:020 -> 2595.00
16:30:21:020 -> 2577.00
16:30:21:020 -> 2567.00
16:30:21:020 -> 2647.00
16:30:21:020 -> 2700.00
16:30:21:020 -> 2659.00
16:30:21:020 -> 2649.00
16:30:21:020 -> 2631.00
16:30:21:020 -> 2685.00
16:30:21:020 -> 2721.00
16:30:21:020 -> 2653.00
16:30:21:020 -> 2637.00
16:30:21:020 -> 2578.00
16:30:21:024 -> 2601.00
16:30:21:024 -> 2717.00
16:30:21:024 -> 2676.00
16:30:21:024 -> 2692.00
16:30:21:024 -> 2667.00
16:30:21:024 -> 2675.00
16:30:21:024 -> 2687.00
16:30:21:024 -> 2766.00
16:30:21:024 -> 2653.00
16:30:21:024 -> 2612.00
16:30:21:024 -> 2570.00
16:30:21:024 -> 2629.00
16:30:21:024 -> 2678.00
16:30:21:024 -> 2676.00
16:30:21:024 -> 2728.00
16:30:21:024 -> 2694.00
16:30:21:024 -> 2645.00
16:30:21:024 -> 2552.00
16:30:21:024 -> 2586.00
16:30:21:024 -> 2620.00
16:30:21:024 -> 2615.00
16:30:21:024 -> 2619.00
16:30:21:024 -> 2598.00
16:30:21:024 -> 2694.00
16:30:21:024 -> 2652.00
16:30:21:024 -> 2709.00
16:30:21:024 -> 2698.00
16:30:21:024 -> 2686.00
16:30:21:024 -> 2668.00
16:30:21:024 -> 2853.00
16:30:21:024 -> 2665.00
16:30:21:024 -> 2672.00
16:30:21:024 -> 2687.00
16:30:21:024 -> 2631.00
16:30:21:024 -> 2658.00
16:30:21:024 -> 2580.00
16:30:21:024 -> 2609.00
16:30:21:027 -> 2684.00
16:30:21:027 -> 2625.00
16:30:21:027 -> 2594.00
16:30:21:041 -> 2508.00
16:30:21:041 -> 2574.00
16:30:21:041 -> 2641.00
16:30:21:041 -> 2721.00
16:30:21:041 -> 2700.00
16:30:21:041 -> 2699.00
16:30:21:041 -> 2656.00
16:30:21:042 -> 2750.00
16:30:21:042 -> 2818.00
16:30:21:042 -> 2737.00
16:30:21:042 -> 2634.00
16:30:21:042 -> 2608.00
16:30:21:042 -> 2528.00
16:30:21:044 -> 2517.00
16:30:21:045 -> 2564.00
16:30:21:046 -> 2784.00
16:30:21:047 -> 2569.00
16:30:21:048 -> 2639.00
16:30:21:050 -> 2611.00
16:30:21:051 -> 2644.00
16:30:21:052 -> 2643.00
16:30:21:053 -> 2616.00
16:30:21:054 -> 2650.00
16:30:21:055 -> 2688.00
16:30:21:057 -> 2705.00
16:30:21:058 -> 2766.00
16:30:21:059 -> 2713.00
16:30:21:060 -> 2715.00
16:30:21:061 -> 2678.00
16:30:21:063 -> 2675.00
16:30:21:073 -> 2669.00
16:30:21:073 -> 2673.00
16:30:21:073 -> 2695.00
16:30:21:073 -> 2682.00
16:30:21:073 -> 2652.00
16:30:21:076 -> 2673.00
16:30:21:076 -> 2618.00
16:30:21:076 -> 2603.00
16:30:21:076 -> 2628.00
16:30:21:076 -> 2699.00
16:30:21:076 -> 2731.00
16:30:21:077 -> 2692.00
16:30:21:078 -> 2625.00
16:30:21:079 -> 2682.00
16:30:21:080 -> 2646.00
16:30:21:082 -> 2703.00
16:30:21:083 -> 2636.00
16:30:21:084 -> 2627.00
16:30:21:085 -> 2568.00
16:30:21:087 -> 2587.00
16:30:21:088 -> 2704.00
16:30:21:089 -> 2703.00
16:30:21:090 -> 2691.00
16:30:21:091 -> 2693.00
16:30:21:092 -> 2719.00
16:30:21:094 -> 2693.00
16:30:21:095 -> 2663.00
16:30:21:096 -> 2649.00
16:30:21:097 -> 2651.00
16:30:21:098 -> 2685.00
16:30:21:100 -> 2684.00
16:30:21:101 -> 2649.00
16:30:21:102 -> 2666.00
16:30:21:105 -> 2638.00
16:30:21:105 -> 2633.00
16:30:21:107 -> 2654.00
16:30:21:107 -> 2648.00
16:30:21:109 -> 2617.00
16:30:21:110 -> 2656.00
16:30:21:111 -> 2660.00
16:30:21:111 -> 2638.00
16:30:21:113 -> 2656.00
16:30:21:114 -> 2641.00
16:30:21:115 -> 2653.00
16:30:21:116 -> 2630.00
16:30:21:117 -> 2656.00
16:30:21:119 -> 2679.00
16:30:21:120 -> 2668.00
16:30:21:121 -> 2689.00
16:30:21:122 -> 2784.00
16:30:21:123 -> 2740.00
16:30:21:124 -> 2632.00
16:30:21:126 -> 2569.00
16:30:21:127 -> 2583.00
16:30:21:128 -> 2647.00
16:30:21:129 -> 2659.00
16:30:21:130 -> 2631.00
16:30:21:141 -> 2601.00
16:30:21:141 -> 2614.00
16:30:21:141 -> 2593.00
16:30:21:141 -> 2623.00
16:30:21:141 -> 2724.00
16:30:21:141 -> 2697.00
16:30:21:141 -> 2679.00
16:30:21:141 -> 2684.00
16:30:21:142 -> 2701.00
16:30:21:142 -> 2658.00
16:30:21:144 -> 2588.00
16:30:21:145 -> 2602.00
16:30:21:147 -> 2642.00
16:30:21:148 -> 2656.00
16:30:21:160 -> 2607.00
16:30:21:160 -> 2551.00
16:30:21:160 -> 2530.00
16:30:21:160 -> 2387.00
16:30:21:160 -> 2580.00
16:30:21:160 -> 2637.00
16:30:21:160 -> 2784.00
16:30:21:160 -> 2746.00
16:30:21:160 -> 2689.00
16:30:21:160 -> 2673.00
16:30:21:160 -> 2663.00
16:30:21:161 -> 2709.00
16:30:21:195 -> 2712.00
16:30:21:195 -> 2753.00
16:30:21:195 -> 2732.00
16:30:21:195 -> 2662.00
16:30:21:195 -> 2581.00
16:30:21:195 -> 2583.00
16:30:21:195 -> 2619.00
16:30:21:195 -> 2687.00
16:30:21:195 -> 2646.00
16:30:21:195 -> 2667.00
16:30:21:195 -> 2710.00
16:30:21:195 -> 2707.00
16:30:21:195 -> 2670.00
16:30:21:195 -> 2612.00
16:30:21:195 -> 2668.00
16:30:21:195 -> 2663.00
16:30:21:195 -> 2672.00
16:30:21:195 -> 2695.00
16:30:21:195 -> 2657.00
16:30:21:195 -> 2600.00
16:30:21:195 -> 2652.00
16:30:21:195 -> 2577.00
16:30:21:195 -> 2684.00
16:30:21:195 -> 2694.00
16:30:21:195 -> 2695.00
16:30:21:195 -> 2677.00
16:30:21:230 -> 2687.00
16:30:21:230 -> 2673.00
16:30:21:230 -> 2702.00
16:30:21:230 -> 2727.00
16:30:21:230 -> 2653.00
16:30:21:230 -> 2634.00
16:30:21:230 -> 2625.00
16:30:21:230 -> 2629.00
16:30:21:230 -> 2686.00
16:30:21:230 -> 2697.00
16:30:21:230 -> 2692.00
16:30:21:230 -> 2694.00
16:30:21:230 -> 2665.00
16:30:21:230 -> 2652.00
16:30:21:230 -> 2669.00
16:30:21:230 -> 2658.00
16:30:21:230 -> 2627.00
16:30:21:230 -> 2636.00
16:30:21:230 -> 2608.00
16:30:21:230 -> 2694.00
16:30:21:230 -> 2692.00
16:30:21:230 -> 2713.00
16:30:21:230 -> 2673.00
16:30:21:230 -> 2637.00
16:30:21:230 -> 2648.00
16:30:21:230 -> 2625.00
16:30:21:230 -> 2657.00
16:30:21:230 -> 2620.00
16:30:21:230 -> 2565.00
16:30:21:230 -> 2572.00
16:30:21:230 -> 2623.00
16:30:21:276 -> 2637.00
16:30:21:276 -> 2571.00
16:30:21:276 -> 2655.00
16:30:21:276 -> 2740.00
16:30:21:276 -> 2724.00
16:30:21:276 -> 2706.00
16:30:21:276 -> 2656.00
16:30:21:276 -> 2661.00
16:30:21:276 -> 2705.00
16:30:21:276 -> 2740.00
16:30:21:276 -> 2712.00
16:30:21:276 -> 2688.00
16:30:21:276 -> 2667.00
16:30:21:276 -> 2574.00
16:30:21:276 -> 2578.00
16:30:21:276 -> 2603.00
16:30:21:276 -> 2573.00
16:30:21:276 -> 2584.00
16:30:21:276 -> 2668.00
16:30:21:276 -> 2697.00
16:30:21:276 -> 2761.00
16:30:21:276 -> 2758.00
16:30:21:276 -> 2697.00
16:30:21:276 -> 2689.00
16:30:21:276 -> 2660.00
16:30:21:276 -> 2654.00
16:30:21:276 -> 2618.00
16:30:21:276 -> 2663.00
16:30:21:276 -> 2654.00
16:30:21:276 -> 2658.00
16:30:21:276 -> 2678.00
16:30:21:276 -> 2663.00
16:30:21:276 -> 2661.00
16:30:21:276 -> 2618.00
16:30:21:276 -> 2574.00
16:30:21:276 -> 2597.00
16:30:21:276 -> 2674.00
16:30:21:276 -> 2642.00
16:30:21:276 -> 2716.00
16:30:21:294 -> 2770.00
16:30:21:294 -> 2725.00
16:30:21:294 -> 2679.00
16:30:21:294 -> 2619.00
16:30:21:294 -> 2653.00
16:30:21:294 -> 2647.00
16:30:21:294 -> 2591.00
16:30:21:294 -> 2640.00
16:30:21:294 -> 2635.00
16:30:21:294 -> 2689.00
16:30:21:294 -> 2629.00
16:30:21:294 -> 2645.00
16:30:21:294 -> 2724.00
16:30:21:294 -> 2689.00
16:30:21:294 -> 2661.00
16:30:21:311 -> 2663.00
16:30:21:311 -> 2665.00
16:30:21:311 -> 2638.00
16:30:21:311 -> 2636.00
16:30:21:311 -> 2652.00
16:30:21:311 -> 2656.00
16:30:21:311 -> 2662.00
16:30:21:311 -> 2665.00
16:30:21:311 -> 2640.00
16:30:21:311 -> 2621.00
16:30:21:311 -> 2630.00
16:30:21:311 -> 2631.00
16:30:21:311 -> 2649.00
16:30:21:311 -> 2629.00
16:30:21:331 -> 2712.00
16:30:21:331 -> 2688.00
16:30:21:331 -> 2609.00
16:30:21:331 -> 2605.00
16:30:21:331 -> 2639.00
16:30:21:331 -> 2668.00
16:30:21:331 -> 2619.00
16:30:21:331 -> 2644.00
16:30:21:331 -> 2738.00
16:30:21:331 -> 2653.00
16:30:21:331 -> 2608.00
16:30:21:331 -> 2655.00
16:30:21:331 -> 2679.00
16:30:21:331 -> 2675.00
16:30:21:331 -> 2673.00
16:30:21:331 -> 2727.00
16:30:21:331 -> 2716.00
16:30:21:334 -> 2648.00
16:30:21:334 -> 2600.00
16:30:21:335 -> 2695.00
16:30:21:335 -> 2711.00
16:30:21:337 -> 2656.00
16:30:21:338 -> 2699.00
16:30:21:339 -> 2663.00
16:30:21:340 -> 2685.00
16:30:21:341 -> 2631.00
16:30:21:342 -> 2662.00
16:30:21:347 -> 2684.00
16:30:21:347 -> 2677.00
16:30:21:347 -> 2688.00
16:30:21:348 -> 2661.00
16:30:21:349 -> 2657.00
16:30:21:350 -> 2651.00
16:30:21:351 -> 2644.00
16:30:21:352 -> 2642.00
16:30:21:354 -> 2629.00
16:30:21:355 -> 2610.00
16:30:21:356 -> 2644.00
16:30:21:357 -> 2620.00
16:30:21:358 -> 2631.00
16:30:21:359 -> 2631.00
16:30:21:360 -> 2673.00
16:30:21:361 -> 2696.00
16:30:21:364 -> 2710.00
16:30:21:364 -> 2694.00
16:30:21:376 -> 2671.00
16:30:21:376 -> 2623.00
16:30:21:376 -> 2588.00
16:30:21:376 -> 2626.00
16:30:21:376 -> 2677.00
16:30:21:376 -> 2649.00
16:30:21:376 -> 2665.00
16:30:21:376 -> 2660.00
16:30:21:376 -> 2684.00
16:30:21:376 -> 2679.00
16:30:21:392 -> 2701.00
16:30:21:392 -> 2661.00
16:30:21:392 -> 2725.00
16:30:21:392 -> 2706.00
16:30:21:392 -> 2683.00
16:30:21:392 -> 2702.00
16:30:21:392 -> 2619.00
16:30:21:392 -> 2570.00
16:30:21:392 -> 2535.00
16:30:21:392 -> 2638.00
16:30:21:392 -> 2690.00
16:30:21:392 -> 2657.00
16:30:21:392 -> 2587.00
16:30:21:401 -> 2641.00
16:30:21:401 -> 2647.00
16:30:21:401 -> 2706.00
16:30:21:401 -> 2672.00
16:30:21:401 -> 2683.00
16:30:21:410 -> 2723.00
16:30:21:410 -> 2676.00
16:30:21:410 -> 2655.00
16:30:21:410 -> 2647.00
16:30:21:410 -> 2656.00
16:30:21:410 -> 2650.00
16:30:21:410 -> 2699.00
16:30:21:410 -> 2709.00
16:30:21:410 -> 2640.00
16:30:21:410 -> 2692.00
16:30:21:424 -> 2674.00
16:30:21:424 -> 2648.00
16:30:21:424 -> 2614.00
16:30:21:424 -> 2593.00
16:30:21:424 -> 2586.00
16:30:21:424 -> 2524.00
16:30:21:424 -> 2581.00
16:30:21:424 -> 2610.00
16:30:21:424 -> 2702.00
16:30:21:424 -> 2698.00
16:30:21:424 -> 2685.00
16:30:21:424 -> 2666.00
16:30:21:429 -> 2696.00
16:30:21:429 -> 2663.00
16:30:21:429 -> 2710.00
16:30:21:429 -> 2665.00
16:30:21:429 -> 2644.00
16:30:21:434 -> 2713.00
16:30:21:434 -> 2677.00
16:30:21:434 -> 2658.00
16:30:21:435 -> 2578.00
16:30:21:436 -> 2588.00
16:30:21:436 -> 2625.00
16:30:21:438 -> 2727.00
16:30:21:439 -> 2756.00
16:30:21:440 -> 2714.00
16:30:21:441 -> 2637.00
16:30:21:442 -> 2700.00
16:30:21:443 -> 2622.00
16:30:21:445 -> 2598.00
16:30:21:446 -> 2573.00
16:30:21:447 -> 2636.00
16:30:21:448 -> 2601.00
16:30:21:450 -> 2644.00
16:30:21:451 -> 2625.00
16:30:21:452 -> 2664.00
16:30:21:453 -> 2662.00
16:30:21:465 -> 2699.00
16:30:21:465 -> 2706.00
16:30:21:465 -> 2730.00
16:30:21:465 -> 2677.00
16:30:21:465 -> 2618.00
16:30:21:465 -> 2613.00
16:30:21:465 -> 2633.00
16:30:21:465 -> 2663.00
16:30:21:465 -> 2687.00
16:30:21:502 -> 2751.00
16:30:21:502 -> 2708.00
16:30:21:502 -> 2694.00
16:30:21:502 -> 2700.00
16:30:21:502 -> 2669.00
16:30:21:502 -> 2697.00
16:30:21:502 -> 2634.00
16:30:21:502 -> 2643.00
16:30:21:502 -> 2651.00
16:30:21:502 -> 2660.00
16:30:21:503 -> 2667.00
16:30:21:503 -> 2665.00
16:30:21:503 -> 2632.00
16:30:21:503 -> 2672.00
16:30:21:503 -> 2686.00
16:30:21:503 -> 2679.00
16:30:21:503 -> 2683.00
16:30:21:503 -> 2587.00
16:30:21:503 -> 2608.00
16:30:21:503 -> 2651.00
16:30:21:503 -> 2673.00
16:30:21:503 -> 2716.00
16:30:21:503 -> 2687.00
16:30:21:503 -> 2633.00
16:30:21:503 -> 2658.00
16:30:21:503 -> 2630.00
16:30:21:503 -> 2604.00
16:30:21:503 -> 2604.00
16:30:21:503 -> 2734.00
16:30:21:503 -> 2746.00
16:30:21:503 -> 2672.00
16:30:21:503 -> 2672.00
16:30:21:503 -> 2612.00
16:30:21:504 -> 2659.00
16:30:21:505 -> 2595.00
16:30:21:507 -> 2645.00
16:30:21:508 -> 2617.00
16:30:21:509 -> 2630.00
16:30:21:510 -> 2684.00
16:30:21:511 -> 2667.00
16:30:21:513 -> 2687.00
16:30:21:514 -> 2692.00
16:30:21:515 -> 2695.00
16:30:21:516 -> 2671.00
16:30:21:517 -> 2666.00
16:30:21:518 -> 2658.00
16:30:21:520 -> 2672.00
16:30:21:523 -> 2672.00
16:30:21:523 -> 2657.00
16:30:21:523 -> 2602.00
16:30:21:525 -> 2654.00
16:30:21:526 -> 2637.00
16:30:21:527 -> 2651.00
16:30:21:528 -> 2576.00
16:30:21:529 -> 2648.00
16:30:21:530 -> 2706.00
16:30:21:532 -> 2686.00
16:30:21:533 -> 2703.00
16:30:21:534 -> 2683.00
16:30:21:535 -> 2700.00
16:30:21:536 -> 2752.00
16:30:21:538 -> 2753.00
16:30:21:539 -> 2659.00
16:30:21:549 -> 2636.00
16:30:21:549 -> 2683.00
16:30:21:549 -> 2680.00
16:30:21:549 -> 2661.00
16:30:21:549 -> 2660.00
16:30:21:549 -> 2649.00
16:30:21:549 -> 2605.00
16:30:21:549 -> 2629.00
16:30:21:550 -> 2649.00
16:30:21:551 -> 2669.00
16:30:21:552 -> 2677.00
16:30:21:553 -> 2694.00
16:30:21:554 -> 2686.00
16:30:21:555 -> 2672.00
16:30:21:557 -> 2650.00
16:30:21:558 -> 2699.00
16:30:21:559 -> 2688.00
16:30:21:560 -> 2682.00
16:30:21:561 -> 2618.00
16:30:21:563 -> 2586.00
16:30:21:564 -> 2701.00
16:30:21:565 -> 2678.00
16:30:21:567 -> 2660.00
16:30:21:567 -> 2673.00
16:30:21:569 -> 2653.00
16:30:21:570 -> 2659.00
16:30:21:571 -> 2684.00
16:30:21:572 -> 2638.00
16:30:21:573 -> 2647.00
16:30:21:574 -> 2705.00
16:30:21:576 -> 2711.00
16:30:21:577 -> 2587.00
16:30:21:578 -> 2642.00
16:30:21:579 -> 2636.00
16:30:21:580 -> 2657.00
16:30:21:582 -> 2577.00
16:30:21:583 -> 2643.00
16:30:21:584 -> 2653.00
16:30:21:585 -> 2664.00
16:30:21:586 -> 2650.00
16:30:21:588 -> 2683.00
16:30:21:589 -> 2675.00
16:30:21:590 -> 2654.00
16:30:21:591 -> 2575.00
16:30:21:592 -> 2582.00
16:30:21:594 -> 2512.00
16:30:21:595 -> 2538.00
16:30:21:596 -> 2640.00
16:30:21:597 -> 2679.00
16:30:21:598 -> 2730.00
16:30:21:600 -> 2670.00
16:30:21:601 -> 2606.00
16:30:21:602 -> 2574.00
16:30:21:603 -> 2707.00
16:30:21:609 -> 2828.00
16:30:21:609 -> 2690.00
16:30:21:609 -> 2656.00
16:30:21:609 -> 2654.00
16:30:21:612 -> 2721.00
16:30:21:612 -> 2712.00
16:30:21:620 -> 2614.00
16:30:21:620 -> 2688.00
16:30:21:620 -> 2724.00
16:30:21:620 -> 2713.00
16:30:21:620 -> 2657.00
16:30:21:620 -> 2669.00
16:30:21:620 -> 2667.00
16:30:21:625 -> 2666.00
16:30:21:625 -> 2709.00
16:30:21:625 -> 2694.00
16:30:21:625 -> 2706.00
16:30:21:625 -> 2674.00
16:30:21:626 -> 2682.00
16:30:21:628 -> 2667.00
16:30:21:628 -> 2650.00
16:30:21:636 -> 2714.00
16:30:21:636 -> 2669.00
16:30:21:636 -> 2625.00
16:30:21:636 -> 2636.00
16:30:21:636 -> 2648.00
16:30:21:636 -> 2645.00
16:30:21:642 -> 2617.00
16:30:21:642 -> 2677.00
16:30:21:642 -> 2625.00
16:30:21:642 -> 2639.00
16:30:21:642 -> 2628.00
16:30:21:649 -> 2609.00
16:30:21:649 -> 2630.00
16:30:21:649 -> 2648.00
16:30:21:649 -> 2659.00
16:30:21:649 -> 2613.00
16:30:21:649 -> 2671.00
16:30:21:651 -> 2681.00
16:30:21:651 -> 2648.00
16:30:21:652 -> 2716.00
16:30:21:653 -> 2725.00
16:30:21:661 -> 2639.00
16:30:21:661 -> 2655.00
16:30:21:661 -> 2658.00
16:30:21:661 -> 2688.00
16:30:21:661 -> 2696.00
16:30:21:661 -> 2736.00
16:30:21:662 -> 2677.00
16:30:21:668 -> 2668.00
16:30:21:668 -> 2676.00
16:30:21:668 -> 2662.00
16:30:21:668 -> 2702.00
16:30:21:668 -> 2734.00
16:30:21:670 -> 2663.00
16:30:21:670 -> 2662.00
16:30:21:671 -> 2677.00
16:30:21:672 -> 2693.00
16:30:21:673 -> 2677.00
16:30:21:674 -> 2685.00
16:30:21:676 -> 2652.00
16:30:21:677 -> 2578.00
16:30:21:678 -> 2661.00
16:30:21:679 -> 2693.00
16:30:21:680 -> 2741.00
16:30:21:682 -> 2703.00
16:30:21:683 -> 2641.00
16:30:21:684 -> 2695.00
16:30:21:685 -> 2764.00
16:30:21:696 -> 2711.00
16:30:21:696 -> 2583.00
16:30:21:696 -> 2641.00
16:30:21:696 -> 2666.00
16:30:21:696 -> 2611.00
16:30:21:715 -> 2615.00
16:30:21:715 -> 2599.00
16:30:21:715 -> 2618.00
16:30:21:715 -> 2675.00
16:30:21:715 -> 2637.00
16:30:21:715 -> 2637.00
16:30:21:715 -> 2653.00
16:30:21:715 -> 2668.00
16:30:21:715 -> 2691.00
16:30:21:715 -> 2696.00
16:30:21:715 -> 2675.00
16:30:21:715 -> 2661.00
16:30:21:715 -> 2656.00
16:30:21:715 -> 2668.00
16:30:21:715 -> 2637.00
16:30:21:715 -> 2695.00
16:30:21:715 -> 2703.00
16:30:21:715 -> 2682.00
16:30:21:715 -> 2648.00
16:30:21:715 -> 2652.00
16:30:21:719 -> 2678.00
16:30:21:719 -> 2651.00
16:30:21:719 -> 2640.00
16:30:21:728 -> 2673.00
16:30:21:728 -> 2689.00
16:30:21:728 -> 2731.00
16:30:21:728 -> 2624.00
16:30:21:728 -> 2643.00
16:30:21:728 -> 2673.00
16:30:21:728 -> 2673.00
16:30:21:728 -> 2642.00
16:30:21:747 -> 2707.00
16:30:21:747 -> 2682.00
16:30:21:747 -> 2705.00
16:30:21:747 -> 2665.00
16:30:21:747 -> 2613.00
16:30:21:747 -> 2727.00
16:30:21:747 -> 2721.00
16:30:21:747 -> 2703.00
16:30:21:747 -> 2660.00
16:30:21:747 -> 2625.00
16:30:21:773 -> 2620.00
16:30:21:773 -> 2661.00
16:30:21:773 -> 2663.00
16:30:21:773 -> 2689.00
16:30:21:773 -> 2663.00
16:30:21:773 -> 2664.00
16:30:21:773 -> 2682.00
16:30:21:773 -> 2617.00
16:30:21:773 -> 2589.00
16:30:21:773 -> 2648.00
16:30:21:773 -> 2660.00
16:30:21:773 -> 2637.00
16:30:21:773 -> 2662.00
16:30:21:773 -> 2619.00
16:30:21:773 -> 2645.00
16:30:21:773 -> 2711.00
16:30:21:773 -> 2681.00
16:30:21:773 -> 2639.00
16:30:21:773 -> 2608.00
16:30:21:773 -> 2632.00
16:30:21:773 -> 2657.00
16:30:21:775 -> 2635.00
16:30:21:775 -> 2636.00
16:30:21:775 -> 2605.00
16:30:21:775 -> 2638.00
16:30:21:775 -> 2674.00
16:30:21:775 -> 2639.00
16:30:21:775 -> 2636.00
16:30:21:775 -> 2637.00
16:30:21:802 -> 2659.00
16:30:21:802 -> 2674.00
16:30:21:802 -> 2719.00
16:30:21:802 -> 2700.00
16:30:21:802 -> 2677.00
16:30:21:802 -> 2782.00
16:30:21:802 -> 2728.00
16:30:21:802 -> 2689.00
16:30:21:802 -> 2662.00
16:30:21:802 -> 2709.00
16:30:21:802 -> 2623.00
16:30:21:802 -> 2654.00
16:30:21:802 -> 2647.00
16:30:21:802 -> 2713.00
16:30:21:802 -> 2703.00
16:30:21:802 -> 2687.00
16:30:21:802 -> 2667.00
16:30:21:802 -> 2665.00
16:30:21:802 -> 2714.00
16:30:21:802 -> 2700.00
16:30:21:802 -> 2633.00
16:30:21:802 -> 2694.00
16:30:21:815 -> 2650.00
16:30:21:815 -> 2643.00
16:30:21:815 -> 2610.00
16:30:21:815 -> 2660.00
16:30:21:815 -> 2583.00
16:30:21:815 -> 2588.00
16:30:21:815 -> 2628.00
16:30:21:815 -> 2669.00
16:30:21:815 -> 2689.00
16:30:21:815 -> 2695.00
16:30:21:815 -> 2706.00
16:30:21:822 -> 2700.00
16:30:21:822 -> 2592.00
16:30:21:822 -> 2624.00
16:30:21:822 -> 2729.00
16:30:21:822 -> 2714.00
16:30:21:822 -> 2674.00
16:30:21:822 -> 2652.00
16:30:21:829 -> 2662.00
16:30:21:829 -> 2675.00
16:30:21:829 -> 2605.00
16:30:21:829 -> 2615.00
16:30:21:829 -> 2610.00
16:30:21:829 -> 2638.00
16:30:21:831 -> 2624.00
16:30:21:832 -> 2720.00
16:30:21:833 -> 2722.00
16:30:21:834 -> 2701.00
16:30:21:835 -> 2714.00
16:30:21:837 -> 2619.00
16:30:21:838 -> 2649.00
16:30:21:839 -> 2650.00
16:30:21:840 -> 2676.00
16:30:21:841 -> 2635.00
16:30:21:842 -> 2535.00
16:30:21:844 -> 2613.00
16:30:21:845 -> 2668.00
16:30:21:851 -> 2689.00
16:30:21:851 -> 2650.00
16:30:21:851 -> 2679.00
16:30:21:851 -> 2682.00
16:30:21:860 -> 2732.00
16:30:21:860 -> 2686.00
16:30:21:860 -> 2618.00
16:30:21:860 -> 2584.00
16:30:21:860 -> 2779.00
16:30:21:860 -> 2731.00
16:30:21:860 -> 2692.00
16:30:21:860 -> 2728.00
16:30:21:864 -> 2675.00
16:30:21:864 -> 2682.00
16:30:21:864 -> 2679.00
16:30:21:864 -> 2676.00
16:30:21:866 -> 2636.00
16:30:21:866 -> 2557.00
16:30:21:868 -> 2675.00
16:30:21:875 -> 2653.00
16:30:21:875 -> 2709.00
16:30:21:875 -> 2696.00
16:30:21:875 -> 2639.00
16:30:21:875 -> 2658.00
16:30:21:875 -> 2719.00
16:30:21:881 -> 2692.00
16:30:21:881 -> 2687.00
16:30:21:881 -> 2602.00
16:30:21:881 -> 2655.00
16:30:21:881 -> 2662.00
16:30:21:883 -> 2673.00
16:30:21:883 -> 2684.00
16:30:21:884 -> 2680.00
16:30:21:885 -> 2666.00
16:30:21:886 -> 2663.00
16:30:21:888 -> 2652.00
16:30:21:889 -> 2638.00
16:30:21:890 -> 2686.00
16:30:21:891 -> 2626.00
16:30:21:892 -> 2639.00
16:30:21:893 -> 2670.00
16:30:21:895 -> 2686.00
16:30:21:896 -> 2705.00
16:30:21:897 -> 2725.00
16:30:21:898 -> 2679.00
16:30:21:900 -> 2675.00
16:30:21:901 -> 2637.00
16:30:21:902 -> 2632.00
16:30:21:903 -> 2684.00
16:30:21:904 -> 2671.00
16:30:21:906 -> 2644.00
16:30:21:907 -> 2623.00
16:30:21:908 -> 2709.00
16:30:21:909 -> 2682.00
16:30:21:911 -> 2679.00
16:30:21:912 -> 2636.00
16:30:21:913 -> 2663.00
16:30:21:914 -> 2646.00
16:30:21:915 -> 2674.00
16:30:21:917 -> 2660.00
16:30:21:918 -> 2611.00
16:30:21:918 -> 2660.00
16:30:21:920 -> 2720.00
16:30:21:921 -> 2669.00
16:30:21:922 -> 2620.00
16:30:21:924 -> 2563.00
16:30:21:925 -> 2643.00
16:30:21:926 -> 2710.00
16:30:21:927 -> 2704.00
16:30:21:928 -> 2596.00
16:30:21:929 -> 2662.00
16:30:21:930 -> 2654.00
16:30:21:932 -> 2610.00
16:30:21:937 -> 2633.00
16:30:21:937 -> 2691.00
16:30:21:937 -> 2705.00
16:30:21:937 -> 2735.00
16:30:21:939 -> 2712.00
16:30:21:939 -> 2680.00
16:30:21:940 -> 2716.00
16:30:21:941 -> 2718.00
16:30:21:942 -> 2688.00
16:30:21:943 -> 2637.00
16:30:21:945 -> 2644.00
16:30:21:946 -> 2644.00
16:30:21:947 -> 2677.00
16:30:21:948 -> 2666.00
16:30:21:951 -> 2671.00
16:30:21:951 -> 2672.00
16:30:21:952 -> 2695.00
16:30:21:953 -> 2669.00
16:30:21:954 -> 2627.00
16:30:21:955 -> 2655.00
16:30:21:957 -> 2652.00
16:30:21:958 -> 2680.00
16:30:21:959 -> 2649.00
16:30:21:960 -> 2664.00
16:30:21:961 -> 2691.00
16:30:21:963 -> 2689.00
16:30:21:964 -> 2641.00
16:30:21:965 -> 2625.00
16:30:21:967 -> 2649.00
16:30:21:968 -> 2642.00
16:30:21:968 -> 2619.00
16:30:21:970 -> 2615.00
16:30:21:971 -> 2637.00
16:30:21:972 -> 2695.00
16:30:21:973 -> 2704.00
16:30:21:974 -> 2663.00
16:30:21:976 -> 2608.00
16:30:21:977 -> 2676.00
16:30:21:978 -> 2706.00
16:30:21:979 -> 2684.00
16:30:21:980 -> 2682.00
16:30:21:982 -> 2643.00
16:30:21:983 -> 2638.00
16:30:21:984 -> 2702.00
16:30:21:986 -> 2690.00
16:30:21:994 -> 2696.00
16:30:21:994 -> 2642.00
16:30:21:994 -> 2644.00
16:30:21:994 -> 2618.00
16:30:21:994 -> 2615.00
16:30:21:994 -> 2640.00
16:30:21:994 -> 2618.00
16:30:22:002 -> 2633.00
16:30:22:002 -> 2641.00
16:30:22:002 -> 2644.00
16:30:22:002 -> 2635.00
16:30:22:002 -> 2637.00
16:30:22:055 -> 2640.00
16:30:22:055 -> 2666.00
16:30:22:055 -> 2596.00
16:30:22:055 -> 2647.00
16:30:22:055 -> 2658.00
16:30:22:055 -> 2675.00
16:30:22:055 -> 2641.00
16:30:22:055 -> 2652.00
16:30:22:055 -> 2676.00
16:30:22:055 -> 2693.00
16:30:22:055 -> 2651.00
16:30:22:055 -> 2705.00
16:30:22:055 -> 2690.00
16:30:22:055 -> 2727.00
16:30:22:055 -> 2734.00
16:30:22:055 -> 2767.00
16:30:22:055 -> 2741.00
16:30:22:055 -> 2693.00
16:30:22:055 -> 2632.00
16:30:22:055 -> 2679.00
16:30:22:055 -> 2681.00
16:30:22:055 -> 2659.00
16:30:22:055 -> 2648.00
16:30:22:055 -> 2706.00
16:30:22:055 -> 2678.00
16:30:22:055 -> 2664.00
16:30:22:055 -> 2714.00
16:30:22:055 -> 2705.00
16:30:22:055 -> 2661.00
16:30:22:055 -> 2689.00
16:30:22:055 -> 2669.00
16:30:22:055 -> 2662.00
16:30:22:055 -> 2673.00
16:30:22:055 -> 2638.00
16:30:22:055 -> 2652.00
16:30:22:055 -> 2656.00
16:30:22:055 -> 2658.00
16:30:22:055 -> 2664.00
16:30:22:055 -> 2656.00
16:30:22:055 -> 2674.00
16:30:22:055 -> 2661.00
16:30:22:055 -> 2668.00
16:30:22:055 -> 2648.00
16:30:22:093 -> 2667.00
16:30:22:093 -> 2687.00
16:30:22:093 -> 2645.00
16:30:22:093 -> 2667.00
16:30:22:093 -> 2710.00
16:30:22:093 -> 2663.00
16:30:22:093 -> 2658.00
16:30:22:093 -> 2654.00
16:30:22:093 -> 2637.00
16:30:22:093 -> 2657.00
16:30:22:093 -> 2617.00
16:30:22:093 -> 2580.00
16:30:22:093 -> 2562.00
16:30:22:093 -> 2591.00
16:30:22:093 -> 2656.00
16:30:22:093 -> 2632.00
16:30:22:093 -> 2655.00
16:30:22:093 -> 2654.00
16:30:22:093 -> 2678.00
16:30:22:093 -> 2728.00
16:30:22:093 -> 2709.00
16:30:22:093 -> 2756.00
16:30:22:093 -> 2791.00
16:30:22:093 -> 2682.00
16:30:22:093 -> 2622.00
16:30:22:093 -> 2600.00
16:30:22:093 -> 2565.00
16:30:22:093 -> 2590.00
16:30:22:093 -> 2633.00
16:30:22:093 -> 2691.00
16:30:22:093 -> 2691.00
16:30:22:093 -> 2701.00
16:30:22:093 -> 2701.00
16:30:22:093 -> 2715.00
16:30:22:093 -> 2696.00
16:30:22:142 -> 2658.00
16:30:22:142 -> 2638.00
16:30:22:142 -> 2627.00
16:30:22:142 -> 2602.00
16:30:22:142 -> 2706.00
16:30:22:142 -> 2693.00
16:30:22:142 -> 2692.00
16:30:22:142 -> 2666.00
16:30:22:142 -> 2667.00
16:30:22:142 -> 2699.00
16:30:22:142 -> 2674.00
16:30:22:142 -> 2593.00
16:30:22:142 -> 2639.00
