2420
2446
2472
2436
2440
2398
2456
2469
2483
2493
2488
2475
2493
2439
2483
2457
2446
2396
2392
2416
2433
2452
2443
2476
2452
2413
2447
2457
2489
2471
2472
2445
2490
2425
2456
2395
2441
2456
2453
2465
2478
2420
2460
2491
2497
2475
2477
2475
2456
2451
2440
2439
2443
2444
2447
2448
2463
2430
2463
2485
2519
2465
2473
2464
2477
2464
2474
2458
2407
2388
2451
2450
2466
2450
2438
2480
2465
2491
2493
2471
2464
2453
2476
2453
2417
2392
2430
2427
2432
2427
2408
2431
2445
2459
2477
2463
2441
2445
2440
2446
2442
2467
2493
2456
2442
2446
2408
2434
2519
2466
2434
2399
2418
2459
2482
2467
2501
2457
2410
2392
2429
2440
2438
2445
2509
2425
2477
2451
2520
2471
2490
2481
2478
2481
2444
2409
2438
2427
2434
2444
2438
2425
2431
2447
2424
2451
2481
2498
2497
2492
2451
2445
2454
2416
2453
2460
2457
2462
2461
2488
2474
2465
2457
2484
2464
2449
2478
2437
2421
2392
2465
2445
2455
2431
2457
2454
2456
2481
2488
2473
2466
2465
2479
2446
2449
2434
2395
2446
2434
2444
2450
2463
2443
2511
2489
2493
2480
2497
2467
2467
2430
2425
2431
2425
2422
2433
2447
2449
2432
2427
2447
2470
2491
2459
2465
2467
2462
2453
2448
2421
2436
2431
2438
2449
2456
2444
2474
2470
2482
2428
2469
2477
2479
2476
2479
2441
2385
2401
2422
2431
2439
2443
2443
2400
2470
2486
2467
2473
2470
2493
2470
2467
2433
2413
2438
2431
2450
2425
2451
2424
2453
2455
2499
2478
2479
2471
2450
2470
2440
2439
2418
2409
2430
2447
2451
2476
2443
2461
2434
2454
2475
2475
2464
2408
2435
2405
2372
2376
2398
2415
2449
2446
2424
2461
2491
2523
2518
2484
2488
2470
2464
2430
2443
2390
2380
2412
2378
2462
2461
2448
2462
2437
2455
2491
2481
2481
2472
2462
2442
2443
2440
2435
2429
2432
2432
2437
2434
2442
2430
2435
2452
2471
2460
2451
2447
2426
2394
2358
2348
2424
2429
2425
2439
2420
2416
2479
2463
2484
2429
2472
2456
2436
2426
2396
2384
2462
2446
2465
2469
2493
2449
2458
2470
2493
2479
2454
2460
2459
2448
2444
2417
2397
2428
2434
2445
2441
2455
2438
2439
2496
2506
2438
2468
2469
2454
2460
2425
2422
2431
2422
2426
2429
2429
2445
2459
2446
2498
2459
2469
2448
2437
2447
2449
2433
2395
2370
2402
2391
2424
2423
2443
2394
2472
2433
2401
2428
2414
2403
2436
2437
2408
2375
2387
2419
2437
2390
2428
2448
2423
2454
2436
2465
2474
2488
2461
2470
2451
2440
2429
2415
2430
2447
2450
2434
2440
2430
2418
2450
2477
2473
2461
2460
2433
2405
2415
2417
2431
2435
2435
2444
2403
2448
2420
2467
2486
2475
2473
2451
2430
2449
2454
2417
2422
2411
2402
2431
2431
2450
2430
2420
2427
2442
2440
2433
2448
2452
2410
2417
2378
2381
2396
2423
2446
2450
2431
2461
2435
2426
2464
2448
2451
2440
2417
2441
2422
2417
2449
2435
2441
2416
2448
2401
2395
2423
2424
2410
2410
2449
2463
2435
2438
2449
2418
2433
2422
2429
2433
2439
2413
2429
2433
2431
2438
2439
2440
2429
2413
2411
2369
2421
2440
2408
2435
2444
2411
2450
2449
2468
2488
2472
2463
2444
2435
2416
2417
2418
2386
2433
2421
2430
2443
2450
2446
2451
2466
2426
2444
2453
2443
2447
2424
2420
2402
2439
2436
2411
2414
2431
2408
2392
2424
2449
2469
2438
2463
2461
2433
2428
2437
2402
2435
2408
2423
2374
2387
2405
2414
2446
2490
2469
2461
2441
2431
2423
2427
2424
2419
2423
2379
2405
2415
2428
2418
2444
2422
2415
2431
2473
2449
2458
2459
2448
2407
2389
2370
2422
2435
2438
2430
2445
2431
2456
2420
2457
2431
2436
2436
2429
2443
2407
2378
2418
2395
2415
2401
2394
2433
2433
2465
2483
2486
2466
2453
2465
2436
2412
2393
2387
2412
2405
2380
2409
2393
2414
2432
2529
2457
2439
2455
2466
2433
2436
2427
2398
2364
2415
2424
2427
2423
2429
2444
2445
2412
2457
2437
2462
2444
2441
2425
2427
2366
2366
2415
2431
2427
2418
2447
2411
2439
2460
2446
2446
2434
2442
2417
2439
2420
2432
2416
2435
2417
2430
2427
2454
2442
2463
2441
2460
2468
2439
2427
2443
2418
2383
2365
2392
2418
2412
2414
2353
2399
2386
2417
2467
2480
2455
2433
2442
2432
2439
2393
2363
2403
2422
2364
2439
2441
2471
2460
2449
2408
2452
2464
2436
2445
2415
2413
2408
2420
2400
2418
2436
2418
2413
2405
2436
2475
2466
2451
2446
2436
2432
2429
2374
2420
2426
2423
2418
2428
2435
2440
2436
2431
2421
2451
2438
2439
2454
2426
2402
2428
2411
2411
2408
2415
2421
2438
2433
2440
2445
2448
2452
2447
2447
2443
2432
2400
2400
2441
2417
2390
2409
2431
2426
2449
2444
2443
2456
2428
2434
2405
2390
2432
2414
2376
2362
2369
2421
2395
2396
2415
2403
2404
2475
2480
2459
2457
2445
2464
2361
2431
2415
2443
2422
2423
2434
2413
2413
2426
2399
2407
2418
2437
2435
2443
2432
2429
2409
2411
2372
2384
2417
2416
2417
2436
2392
2432
2418
2462
2397
2449
2439
2444
2404
2409
2365
2348
2374
2409
2422
2410
2436
2423
2441
2396
2411
2452
2446
2435
2414
2415
2387
2357
2364
2409
2433
2426
2400
2394
2415
2484
2460
2430
2447
2438
2421
2423
2423
2395
2378
2401
2370
2398
2429
2415
2427
2433
2405
2430
2420
2433
2409
2417
2393
2386
2375
2413
2418
2429
2452
2405
2400
2439
2432
2419
2425
2455
2448
2433
2432
2419
2415
2350
2337
2344
2400
2415
2427
2413
2396
2423
2420
2431
2437
2434
2429
2401
2384
2406
2397
2414
2479
2405
2406
2424
2434
2427
2430
2434
2454
2434
2439
2430
2404
2423
2396
2385
2328
2394
2391
2413
2415
2442
2415
2409
2455
2447
2426
2418
2400
2389
2380
2383
2400
2389
2395
2415
2426
2382
2349
2420
2425
2426
2456
2428
2420
2430
2419
2392
2381
2346
2393
2346
2404
2430
2401
2427
2460
2490
2482
2454
2445
2429
2441
2399
2390
2347
2329
2399
2402
2397
2410
2398
2375
2401
2424
2425
2450
2429
2438
2407
2403
2396
2401
2409
2415
2414
2416
2403
2407
2385
2407
2417
2372
2392
2418
2429
2436
2420
2388
2375
2374
2408
2408
2402
2421
2431
2446
2445
2422
2440
2469
2459
2449
2440
2414
2387
2378
2402
2419
2407
2432
2427
2421
2436
2468
2466
2434
2432
2431
2388
2397
2396
2379
2378
2372
2402
2394
2425
2416
2400
2413
2412
2403
2425
2430
2429
2430
2392
2371
2354
2376
2382
2404
2405
2415
2366
2378
2394
2462
2431
2434
2434
2414
2419
2387
2412
2412
2408
2344
2383
2394
2401
2352
2372
2428
2468
2459
2463
2456
2436
2425
2410
2407
2402
2377
2396
2404
2398
2436
2423
2442
2408
2431
2509
2448
2438
2441
2436
2396
2383
2364
2394
2385
2402
2406
2406
2386
2415
2393
2396
2410
2405
2389
2422
2410
2428
2428
2416
2403
2396
2394
2414
2393
2400
2411
2416
2447
2465
2481
2478
2455
2416
2406
2378
2398
2393
2405
2426
2437
2403
2420
2395
2464
2478
2461
2453
2438
2430
2442
2391
2396
2362
2398
2400
2407
2404
2418
2432
2386
2374
2412
2420
2434
2437
2438
2447
2427
2371
2358
2421
2442
2426
2413
2424
2409
2398
2435
2489
2452
2428
2421
2422
2387
2381
2379
2423
2410
2404
2420
2429
2398
2408
2389
2456
2427
2431
2414
2413
2399
2394
2374
2384
2375
2391
2418
2412
2434
2448
2456
2411
2447
2441
2432
2446
2426
2413
2375
2386
2366
2436
2425
2398
2433
2420
2413
2472
2472
2464
2459
2447
2434
2421
2409
2378
2351
2400
2391
2412
2404
2415
2398
2433
2437
2436
2450
2432
2436
2431
2436
2401
2365
2382
2414
2396
2395
2401
2395
2374
2406
2421
2465
2410
2447
2444
2448
2435
2419
2380
2392
2348
2398
2387
2404
2364
2425
2430
2446
2405
2457
2454
2408
2446
2417
2398
2358
2398
2385
2405
2406
2375
2440
2455
2451
2487
2451
2455
2446
2417
2440
2433
2407
2357
2359
2378
2414
2402
2426
2410
2402
2439
2464
2468
2431
2437
2435
2390
2422
2385
2376
2399
2397
2416
2384
2418
2427
2450
2439
2430
2464
2410
2448
2435
2429
2392
2391
2385
2342
2381
2412
2410
2403
2368
2406
2441
2495
2434
2457
2440
2442
2413
2447
2417
2364
2362
2380
2423
2421
2409
2418
2419
2401
2411
2432
2415
2394
2401
2423
2431
2373
2355
2392
2411
2415
2431
2420
2418
2425
2475
2469
2439
2465
2475
2423
2437
2430
2406
2421
2413
2418
2409
2449
2434
2425
2445
2417
2425
2430
2463
2438
2440
2410
2394
2397
2348
2378
2396
2416
2414
2378
2403
2424
2460
2422
2426
2440
2422
2432
2390
2407
2392
2378
2389
2399
2393
2432
2452
2416
2462
2433
2421
2442
2445
2417
2417
2414
2352
2355
2393
2383
2395
2422
2403
2426
2405
2455
2470
2486
2446
2427
2432
2420
2438
2394
2372
2390
2388
2403
2437
2443
2428
2428
2458
2453
2450
2453
2448
2438
2440
2464
2383
2399
2394
2408
2389
2414
2368
2424
2442
2424
2408
2424
2424
2443
2433
2385
2399
2377
2346
2384
2407
2400
2399
2389
2393
2394
2449
2425
2442
2417
2430
2435
2467
2422
2371
2343
2383
2409
2420
2422
2414
2419
2438
2408
2492
2426
2434
2440
2434
2441
2398
2348
2357
2399
2414
2427
2402
2432
2399
2417
2452
2478
2447
2420
2448
2401
2376
2407
2398
2378
2394
2417
2437
2406
2437
2453
2489
2399
2431
2455
2448
2432
2418
2408
2383
2351
2401
2393
2399
2409
2407
2400
2424
2435
2470
2432
2423
2435
2415
2430
2431
2400
2358
2400
2430
2413
2423
2438
2396
2456
2450
2478
2437
2440
2426
2401
2401
2398
2433
2443
2453
2414
2420
2361
2428
2438
2446
2456
2461
2448
2439
2429
2423
2423
2390
2357
2403
2398
2408
2413
2415
2363
2381
2382
2415
2390
2410
2436
2465
2412
2393
2399
2455
2402
2414
2432
2417
2440
2447
2446
2445
2460
2513
2457
2450
2439
2400
2420
2392
2403
2384
2397
2407
2401
2416
2414
2435
2444
2457
2425
2439
2446
2450
2438
2417
2405
2339
2396
2414
2417
2409
2392
2417
2423
2456
2490
2443
2440
2433
2436
2414
2397
2369
2382
2392
2386
2389
2418
2387
2378
2381
2454
2430
2441
2440
2363
2434
2443
2430
2409
2369
2391
2408
2417
2384
2396
2391
2417
2469
2477
2445
2444
2440
2422
2412
2390
2365
2402
2430
2425
2433
2438
2410
2435
2483
2458
2450
2441
2458
2437
2437
2419
2365
2338
2375
2382
2412
2401
2425
2425
2435
2417
2489
2436
2448
2426
2434
2400
2398
2390
2393
2401
2432
2407
2415
2391
2425
2409
2431
2386
2423
2422
2414
2425
2422
2400
2372
2420
2432
2449
2431
2438
2416
2431
2419
2467
2454
2447
2428
2426
2396
2405
2386
2388
2376
2380
2431
2398
2432
2477
2463
2445
2429
2448
2460
2448
2394
2445
2432
2407
2363
2408
2406
2416
2420
2431
2394
2424
2445
2470
2445
2454
2447
2396
2422
2396
2349
2366
2371
2394
2366
2419
2443
2398
2423
2445
2418
2461
2463
2438
2430
2424
2411
2391
2352
2389
2404
2406
2419
2416
2437
2428
2457
2483
2449
2440
2433
2393
2389
2406
2383
2403
2363
2390
2415
2408
2406
2427
2466
2485
2508
2468
2460
2446
2436
2414
2393
2359
2392
2370
2395
2373
2387
2433
2455
2468
2463
2458
2454
2431
2427
2443
2429
2386
2352
2361
2407
2427
2409
2435
2446
2422
2401
2432
2461
2450
2457
2428
2415
2397
2395
2393
2388
2394
2411
2415
2407
2418
2443
2442
2443
2437
2452
2445
2431
2442
2410
2369
2374
2399
2411
2412
2422
2422
2388
2415
2479
2465
2467
2462
2439
2418
2410
2386
2395
2401
2425
2400
2400
2423
2408
2407
2425
2434
2453
2447
2454
2431
2404
2396
2377
2283
2484
2507
2546
2432
2466
2347
2362
2138
1807
2001
2154
2639
2999
2808
2294
2488
2381
2536
2701
2614
2568
2454
2525
2686
2553
2398
2261
2193
2226
2318
2290
2295
2435
2664
2624
2639
2523
2598
2625
2620
2428
2327
2305
2464
2547
2004
1873
2212
2523
2756
3000
2515
2439
2620
2483
2526
2558
2542
2640
2486
2290
2244
2226
2363
2313
2444
2353
2384
2527
2631
2683
2641
2455
2401
2498
2493
2364
2409
2342
2228
2194
2143
2088
2276
2276
2322
2720
2965
2944
2762
2538
2478
2368
2419
2469
2621
2235
2418
2572
2530
2501
2560
2751
2529
2348
2250
2431
2609
2670
2505
2533
2532
2442
2425
2474
2430
2443
2557
2374
2189
2267
2556
2655
2635
2379
2540
2619
2515
2460
2531
2461
2511
2380
2308
2497
2582
2456
2398
2198
2377
2484
2532
2475
2440
2452
2289
2438
2493
2695
2582
2543
2567
2466
2642
2594
2381
2141
2279
2356
2361
2497
2841
2650
2632
2484
2536
2488
2431
2447
2523
2574
2455
2432
2514
2552
2528
2333
2285
2613
2567
2476
2526
2501
2387
2366
2273
2368
2460
2698
2552
2665
2729
2515
2506
2376
2295
2322
2236
2289
2549
2901
2718
2561
2556
2482
2459
2434
2383
2481
2374
2426
2393
2298
2251
2577
2594
2669
2649
2761
2587
2483
2258
2362
2235
2181
2343
2762
2961
2682
2563
2521
2495
2311
2161
2316
2498
2637
2659
2608
2409
2185
2319
2741
2807
2729
2668
2492
2469
2622
2582
2532
2454
2548
2588
2538
2444
2404
2282
2285
2290
2540
2275
2168
2322
2790
2774
2726
2662
2581
2555
2579
2581
2535
2479
2405
2607
2651
2483
2363
2297
2346
2373
2566
2600
2567
2476
2593
2702
2642
2541
2473
2341
2287
2369
2296
2456
2570
2471
2472
2479
2546
2666
2303
2342
2408
2594
2762
2728
2673
2489
2376
2574
2573
2505
2441
2423
2458
2506
2760
2760
2719
2587
2425
2450
2556
2538
2673
2551
2430
2562
2437
2433
2329
2485
2690
2528
2528
2422
2309
2322
2390
2261
2407
2643
2567
2742
2555
2564
2669
2661
2428
2340
2417
2485
2570
2718
2869
2587
2663
2564
2493
2545
2621
2637
2544
2353
2233
2381
2460
2449
2525
2506
2510
2407
2421
2634
2699
2635
2698
2616
2374
2301
2400
2106
2096
2330
2319
2775
2789
2885
2892
2670
2640
2592
2572
2458
2398
2560
2542
2493
2536
2422
2410
2334
2462
2504
2488
2749
2645
2601
2597
2546
2693
2665
2503
2496
2474
2478
2517
2565
2659
2635
2575
2507
2516
2533
2464
2425
2434
2340
2188
2173
2278
2280
2432
2535
2932
3013
2617
2689
2687
2629
2603
2649
2558
2582
2652
2548
2527
2545
2567
2581
2643
2551
2518
2591
2697
2364
2176
2501
2446
2478
2501
2404
2377
2260
2223
2255
2422
2812
2917
2767
2602
2715
2601
2607
2591
2537
2543
2513
2447
2413
2405
2373
2367
2618
2634
2644
2572
2275
2020
1956
2263
2484
2932
2995
2908
2727
2729
2660
2660
2534
2462
2349
2438
2670
2760
2805
2567
2476
2466
2478
2547
2460
2527
2634
2654
2373
2546
2601
2580
2498
2379
2262
2332
2537
2619
2583
2642
2743
2666
2513
2391
2588
2565
2593
2511
2557
2613
2585
2587
2623
2403
2243
2384
2312
2367
2473
2316
2659
2681
2580
2686
2661
2682
2725
2736
2742
2541
2260
2198
2328
2465
2109
2334
2714
2902
2759
2734
2746
2666
2614
2531
2425
2372
2502
2505
2365
2469
2428
2260
2284
2238
2122
2500
3060
3143
2880
2751
2740
2576
2362
2485
2517
2653
2560
2516
2508
2540
2392
2392
2414
2557
2537
2457
2523
2564
2521
2620
2662
2635
2657
2600
2592
2503
2388
2370
2294
2312
2490
2506
2668
2618
2661
2696
2627
2467
2415
2347
2196
2336
2731
2749
2581
2593
2548
2588
2618
2687
2470
2637
2624
2446
2382
2577
2466
2550
2359
2601
2706
2636
2451
2560
2611
2654
2530
2610
2627
2554
2541
2506
2490
2465
2446
2362
2413
2465
2588
2503
2530
2591
2628
2616
2567
2520
2567
2480
2392
2319
2368
2404
2462
2577
2706
2639
2550
2529
2659
2631
2534
2503
2433
2486
2411
2339
2323
2315
2516
2841
2674
2594
2598
2609
2632
2508
2235
2103
2347
2401
2198
2586
2959
2949
2809
2715
2651
2617
2575
2563
2535
2531
2567
2527
2560
2531
2468
2430
2395
2536
2555
2473
2429
2536
2500
2514
2535
2577
2525
2463
2427
2474
2470
2404
2571
2357
2405
2650
2596
2641
2637
2539
2612
2445
2457
2307
2321
2325
2403
2648
2482
2437
2630
2646
2538
2579
2554
2608
2638
2544
2572
2406
2545
2577
2607
2675
2580
2580
2556
2509
2448
2528
2477
2331
2488
2561
2548
2481
2572
2571
2581
2467
2483
2508
2434
2384
2349
2237
2431
2522
2758
2663
2558
2485
2563
2669
2602
2391
2390
2438
2488
2737
2558
2543
2626
2581
2511
2565
2462
2506
2556
2599
2522
2464
2428
2457
2437
2402
2513
2424
2434
2454
2463
2438
2531
2381
2610
2829
2692
2676
2645
2606
2566
2464
2519
2585
2555
2583
2593
2450
2341
2449
2481
2584
2524
2573
2429
2393
2513
2482
2295
2414
2587
2622
2602
2613
2619
2611
2592
2567
2484
2408
2241
2274
2336
2327
2624
2621
2520
2388
2265
2304
2474
2663
2784
2708
2601
2644
2561
2534
2499
2451
2366
2550
2511
2529
2554
2662
2646
2578
2600
2617
2397
2137
2314
2292
2439
2593
2598
2726
2650
2562
2523
2341
2202
2117
2271
2125
2255
2688
3083
2954
2725
2693
2672
2583
2565
2603
2568
2552
2547
2556
2616
2575
2444
2338
2219
2284
2204
2265
2216
2376
2842
2916
2802
2710
2614
2620
2591
2473
2417
2428
2430
2327
2440
2478
2474
2420
2366
2514
2662
2715
2364
2489
2557
2595
2596
2560
2488
2459
2438
2236
2228
2424
2405
2484
2558
2490
2636
2657
2691
2640
2625
2631
2503
2435
2457
2455
2429
2301
2796
2755
2542
2579
2525
2458
2493
2481
2478
2542
2401
2293
2306
2383
2418
2351
2270
2270
2385
2540
2542
2982
2916
2752
2532
2611
2515
2354
2306
2356
2304
2260
2442
2643
2730
2727
2781
2569
2503
2472
2552
2519
2475
2474
2536
2562
2554
2487
2442
2421
2362
2348
2315
2201
2414
2583
2605
2647
2516
2490
2454
2458
2403
2385
2380
2406
2571
2792
2687
2641
2581
2568
2506
2527
2517
2499
2457
2434
2353
2286
2338
2560
2585
2521
2488
2400
2387
2509
2461
2478
2443
2493
2711
2571
2450
2544
2487
2477
2524
2521
2506
2378
2513
2498
2512
2516
2379
2510
2372
2441
2461
2419
2570
2507
2508
2531
2539
2498
2496
2510
2463
2336
2437
2443
2460
2506
2595
2613
2596
2584
2544
2575
2493
2475
2402
2436
2489
2334
2522
2524
2463
2453
2519
2490
2497
2476
2426
2414
2552
2676
2634
2545
2417
2386
2453
2448
2515
2444
2326
2479
2499
2425
2605
2612
2439
2445
2560
2583
2552
2485
2445
2541
2557
2574
2498
2403
2405
2401
2341
2411
2521
2499
2536
2586
2558
2572
2535
2257
2247
2396
2251
2421
2715
2702
2636
2579
2577
2543
2544
2484
2402
2411
2407
2355
2384
2525
2525
2643
2539
2525
2505
2537
2421
2465
2484
2495
2486
2475
2441
2491
2479
2470
2496
2534
2530
2423
2435
2312
2364
2414
2390
2397
2587
2703
2677
2550
2469
2503
2449
2543
2540
2503
2456
2478
2523
2461
2440
2495
2421
2394
2342
2404
2530
2604
2549
2519
2612
2579
2399
2412
2435
2523
2666
2556
2527
2418
2451
2440
2402
2374
2512
2575
2481
2488
2471
2430
2521
2495
2450
2432
2355
2392
2455
2515
2449
2414
2375
2297
2424
2495
2598
2618
2491
2585
2580
2530
2568
2491
2444
2430
2434
2475
2309
2184
2228
2197
2373
2814
2615
2424
2585
2686
2652
2549
2559
2526
2545
2514
2489
2465
2517
2498
2446
2353
2388
2362
2407
2500
2572
2596
2539
2479
2363
2497
2549
2571
2523
2396
2442
2416
2523
2472
2439
2453
2416
2440
2452
2345
2406
2481
2483
2424
2537
2338
2359
2424
2513
2444
2426
2434
2449
2526
2615
2412
2364
2465
2383
2453
2495
2565
2611
2601
2559
2568
2493
2493
2421
2505
2518
2488
2497
2384
2424
2425
2481
2521
2481
2511
2491
2416
2389
2469
2406
2263
2367
2431
2496
2346
2346
2156
2402
2520
2590
2655
2644
2666
2474
2439
2290
2432
2502
2459
2489
2636
2471
2499
2516
2644
2523
2452
2432
2408
2382
2429
2515
2464
2389
2373
2401
2472
2463
2429
2453
2459
2384
2410
2534
2426
2422
2567
2634
2623
2582
2596
2522
2478
2453
2422
2445
2347
2326
2298
2390
2548
2624
2560
2380
2403
2213
2306
2610
2669
2544
2536
2601
2550
2429
2401
2504
2487
2363
2347
2225
2411
2444
2522
2555
2583
2575
2600
2587
2557
2514
2463
2388
2383
2436
2380
2429
2395
2468
2539
2522
2536
2516
2463
2431
2401
2345
2392
2466
2433
2426
2491
2454
2481
2449
2556
2561
2527
2408
2378
2424
2430
2319
2415
2435
2523
2568
2427
2469
2428
2439
2491
2394
2361
2451
2528
2548
2537
2477
2524
2456
2401
2493
2372
2380
2367
2449
2518
2468
2550
2541
2516
2516
2504
2526
2461
2400
2473
2455
2379
2389
2479
2376
2341
2416
2397
2395
2520
2511
2591
2645
2580
2434
2427
2458
2386
2445
2395
2460
2505
2542
2529
2453
2489
2509
2513
2396
2431
2472
2473
2390
2402
2441
2439
2365
2396
2367
2460
2605
2463
2398
2467
2496
2476
2445
2436
2523
2562
2594
2492
2393
2378
2431
2543
2526
2467
2410
2403
2401
2403
2339
2478
2571
2505
2392
2431
2505
2401
2358
2368
2506
2623
2576
2461
2423
2469
2445
2351
2369
2344
2401
2450
2523
2530
2489
2429
2467
2534
2657
2478
2506
2510
2531
2454
2342
2378
2484
2516
2465
2429
2417
2398
2420
2426
2352
2277
2475
2527
2314
2399
2609
2651
2569
2527
2514
2513
2469
2362
2395
2398
2466
2483
2280
2410
2400
2551
2576
2500
2439
2553
2529
2492
2484
2509
2459
2369
2397
2386
2352
2370
2444
2427
2359
2378
2574
2519
2513
2504
2427
2398
2344
2320
2381
2448
2475
2469
2458
2638
2684
2551
2495
2444
2463
2488
2462
2403
2442
2575
2479
2437
2447
2446
2493
2466
2483
2371
2383
2461
2459
2473
2459
2471
2431
2285
2365
2530
2666
2433
2418
2498
2486
2368
2470
2428
2555
2653
2544
2520
2419
2334
2274
2461
2485
2478
2425
2474
2523
2586
2546
2506
2358
2397
2401
2405
2402
2386
2457
2460
2380
2311
2275
2233
2394
2466
2535
2557
2585
2662
2641
2532
2455
2433
2413
2395
2473
2323
2489
2488
2488
2461
2432
2595
2601
2556
2446
2430
2444
2525
2468
2501
2538
2250
2323
2443
2354
2409
2382
2468
2467
2491
2451
2464
2526
2437
2270
2472
2533
2462
2367
2413
2502
2504
2550
2491
2562
2559
2462
2420
2465
2460
2416
2395
2414
2525
2547
2434
2415
2448
2466
2418
2392
2479
2359
2350
2310
2345
2319
2464
2469
2594
2611
2511
2588
2483
2434
2310
2186
2393
2465
2598
2714
2674
2575
2527
2486
2598
2509
2500
2348
2284
2189
2111
2219
2266
2402
2470
2602
2693
2595
2568
2641
2559
2445
2389
2498
2465
2523
2523
2463
2417
2415
2352
2319
2460
2468
2383
2467
2574
2558
2536
2468
2490
2499
2489
2462
2420
2396
2274
2341
2552
2630
2541
2529
2439
2359
2325
2204
2018
2205
2504
2436
2491
2478
2668
2660
2560
2602
2543
2551
2536
2506
2483
2377
2362
2367
2406
2475
2461
2583
2629
2507
2401
2382
2322
2297
2293
2304
2466
2697
2610
2481
2454
2486
2433
2457
2362
2404
2456
2465
2324
2390
2395
2368
2320
2492
2749
2667
2353
2309
2436
2398
2467
2452
2511
2395
2435
2465
2409
2278
2420
2610
2626
2613
2494
2507
2476
2312
2368
2328
2355
2252
2403
2446
2401
2473
2450
2683
2585
2577
2639
2677
2543
2517
2427
2352
2324
2357
2290
2342
2490
2507
2494
2481
2479
2497
2498
2476
2481
2450
2450
2419
2471
2469
2461
2471
2463
2426
2488
2463
2472
2481
2484
2480
2481
2446
2477
2445
2449
2442
2470
2473
2480
2443
2463
2491
2532
2518
2498
2509
2508
2485
2500
2470
2402
2426
2431
2459
2478
2477
2449
2485
2457
2444
2449
2488
2501
2500
2495
2488
2474
2476
2463
2484
2480
2488
2477
2470
2464
2458
2448
2452
2522
2517
2506
2497
2485
2473
2449
2454
2465
2478
2484
2461
2476
2507
2561
2502
2497
2507
2502
2497
2466
2459
2475
2445
2444
2472
2471
2465
2489
2453
2462
2487
2493
2473
2490
2504
2488
2440
2433
2426
2429
2431
2441
2460
2458
2426
2485
2478
2516
2517
2532
2501
2479
2504
2492
2468
2435
2404
2446
2479
2484
2502
2488
2459
2488
2472
2539
2507
2484
2495
2467
2432
2424
2468
2461
2475
2487
2500
2501
2465
2493
2500
2516
2515
2508
2513
2503
2522
2460
2448
2413
2421
2433
2473
2477
2481
2466
2440
2453
2481
2517
2510
2489
2484
2486
2482
2459
2471
2457
2445
2482
2478
2490
2487
2475
2424
2456
2500
2464
2450
2453
2458
2439
2416
2468
2438
2473
2484
2493
2477
2468
2497
2520
2548
2485
2495
2470
2492
2473
2436
2396
2449
2439
2458
2498
2471
2478
2464
2490
2523
2483
2506
2512
2487
2505
2495
2476
2410
2461
2481
2473
2482
2483
2457
2478
2478
2540
2502
2517
2477
2477
2469
2483
2468
2434
2410
2438
2466
2473
2494
2487
2459
2431
2501
2481
2477
2463
2465
2480
2458
2454
2441
2469
2461
2488
2488
2480
2498
2480
2515
2506
2523
2507
2482
2492
2483
2476
2459
2424
2430
2445
2466
2468
2454
2485
2483
2515
2545
2509
2503
2501
2470
2400
2477
2447
2425
2458
2467
2471
2476
2488
2464
2471
2522
2499
2515
2484
2499
2492
2478
2476
2485
2407
2431
2447
2465
2454
2489
2489
2493
2522
2491
2515
2511
2483
2502
2501
2449
2418
2421
2467
2485
2482
2487
2473
2464
2472
2508
2467
2479
2479
2486
2469
2470
2463
2478
2462
2463
2469
2468
2491
2508
2517
2467
2481
2483
2507
2501
2494
2468
2451
2438
2420
2444
2475
2475
2497
2467
2476
2488
2515
2489
2491
2510
2541
2450
2507
2482
2442
2414
2435
2478
2476
2449
2504
2461
2463
2480
2529
2488
2478
2463
2481
2458
2470
2484
2486
2458
2470
2486
2501
2488
2486
2489
2489
2494
2499
2485
2499
2450
2463
2486
2444
2468
2465
2478
2483
2486
2467
2479
2508
2503
2560
2511
2525
2507
2481
2462
2474
2469
2481
2474
2467
2475
2501
2473
2470
2491
2463
2480
2483
2493
2487
2459
2449
2418
2408
2428
2465
2476
2444
2413
2463
2508
2502
2486
2504
2500
2506
2466
2495
2453
2422
2451
2494
2481
2482
2485
2459
2477
2479
2517
2538
2502
2502
2489
2484
2493
2492
2503
2446
2471
2464
2489
2464
2474
2448
2521
2447
2473
2489
2486
2489
2467
2462
2482
2467
2483
2489
2467
2497
2495
2473
2495
2488
2503
2463
2520
2469
2459
2450
2436
2418
2436
2461
2465
2497
2574
2467
2469
2475
2481
2516
2490
2487
2465
2492
2446
2466
2478
2409
2461
2483
2497
2499
2497
2471
2465
2500
2524
2501
2492
2492
2484
2475
2448
2455
2474
2453
2484
2483
2475
2473
2493
2474
2473
2487
2494
2501
2491
2496
2484
2450
2446
2461
2475
2455
2472
2480
2468
2499
2491
2509
2514
2479
2485
2496
2518
2483
2455
2439
2490
2446
2471
2476
2467
2493
2478
2491
2476
2502
2491
2488
2483
2515
2459
2457
2436
2422
2455
2464
2483
2475
2456
2489
2517
2520
2516
2510
2510
2487
2495
2463
2446
2484
2441
2463
2469
2472
2432
2474
2493
2499
2500
2503
2498
2493
2486
2494
2476
2435
2426
2453
2474
2476
2472
2490
2480
2491
2463
2480
2466
2509
2490
2477
2496
2475
2465
2431
2469
2491
2476
2474
2479
2461
2457
2504
2475
2474
2485
2473
2466
2442
2447
2488
2458
2487
2453
2469
2465
2453
2478
2495
2478
2437
2489
2444
2510
2504
2487
2460
2446
2434
2485
2491
2491
2502
2480
2461
2494
2505
2517
2486
2492
2513
2473
2471
2452
2465
2466
2471
2480
2459
2465
2488
2478
2464
2518
2508
2486
2498
2484
2425
2510
2444
2500
2467
2466
2466
2484
2496
2486
2511
2464
2481
2504
2507
2479
2484
2484
2439
2436
2447
2435
2453
2449
2450
2434
2411
2470
2495
2496
2471
2492
2468
2440
2490
2476
2441
2503
2473
2499
2495
2502
2525
2499
2509
2516
2518
2497
2457
2491
2454
2488
2460
2412
2415
2421
2482
2496
2496
2482
2466
2485
2508
2489
2486
2515
2455
2481
2467
2427
2487
2458
2468
2460
2474
2490
2509
2481
2444
2473
2500
2474
2476
2495
2476
2451
2422
2421
2494
2473
2484
2485
2461
2513
2424
2507
2528
2484
2485
2476
2493
2493
2486
2445
2427
2412
2437
2461
2476
2457
2459
2480
2453
2494
2500
2498
2491
2501
2475
2465
2455
2470
2455
2489
2478
2522
2510
2470
2476
2489
2504
2502
2495
2500
2498
2463
2467
2452
2485
2466
2483
2473
2448
2478
2490
2498
2526
2518
2503
2436
2474
2489
2496
2482
2432
2409
2460
2484
2463
2456
2475
2529
2536
2527
2514
2510
2499
2477
2478
2467
2427
2453
2436
2454
2441
2471
2484
2487
2534
2509
2513
2496
2487
2484
2492
2497
2471
2435
2429
2427
2446
2449
2473
2479
2486
2501
2504
2511
2537
2510
2511
2503
2484
2453
2409
2462
2445
2438
2469
2457
2471
2492
2463
2460
2483
2505
2509
2514
2495
2517
2489
2449
2444
2462
2477
2488
2466
2490
2507
2488
2438
2490
2492
2468
2461
2470
2460
2459
2447
2463
2453
2475
2474
2467
2466
2466
2439
2458
2464
2472
2488
2472
2484
2478
2477
2434
2444
2493
2483
2492
2502
2486
2491
2504
2496
2479
2491
2496
2501
2495
2474
2455
2489
2494
2486
2490
2479
2484
2485
2463
2449
2468
2521
2498
2504
2508
2491
2463
2451
2473
2424
2484
2467
2396
2502
2494
2470
2443
2476
2522
2520
2497
2488
2477
2478
2460
2442
2485
2481
2464
2452
2460
2491
2512
2512
2500
2498
2487
2498
2471
2501
2489
2434
2441
2496
2487
2486
2485
2475
2482
2516
2508
2497
2507
2493
2488
2475
2444
2459
2430
2466
2462
2472
2482
2457
2488
2472
2501
2512
2511
2510
2493
2495
2494
2460
2435
2428
2468
2465
2457
2449
2487
2446
2430
2434
2519
2546
2509
2495
2496
2451
2454
2470
2456
2458
2483
2458
2466
2442
2493
2489
2478
2493
2504
2497
2492
2499
2470
2480
2466
2469
2447
2462
2455
2465
2485
2481
2500
2467
2487
2486
2506
2517
2489
2509
2483
2428
2458
2486
2500
2505
2499
2494
2505
2513
2483
2497
2512
2490
2495
2493
2489
2482
2420
2468
2456
2478
2477
2506
2462
2480
2500
2527
2500
2500
2501
2491
2483
2461
2467
2470
2445
2483
2478
2470
2472
2489
2469
2464
2478
2493
2506
2493
2503
2502
2458
2416
2461
2444
2466
2479
2502
2468
2474
2486
2505
2487
2511
2498
2508
2485
2459
2453
2479
2483
2452
2481
2470
2464
2456
2472
2455
2476
2492
2511
2510
2509
2482
2467
2485
2449
2489
2482
2494
2487
2496
2512
2479
2487
2504
2487
2470
2474
2478
2481
2498
2465
2464
2460
2456
2484
2487
2476
2499
2492
2476
2470
2440
2486
2489
2473
2470
2435
2449
2465
2451
2458
2463
2469
2450
2473
2478
2506
2535
2506
2494
2483
2479
2500
2471
2446
2490
2454
2468
2485
2451
2489
2461
2480
2447
2460
2475
2498
2492
2509
2505
2499
2482
2462
2467
2495
2500
2497
2485
2476
2478
2480
2503
2499
2507
2495
2478
2462
2463
2444
2454
2429
2485
2478
2490
2459
2502
2502
2499
2498
2485
2491
2481
2489
2487
2456
2455
2465
2473
2482
2492
2514
2456
2477
2474
2520
2508
2477
2486
2475
2489
2467
2438
2429
2450
2464
2473
2506
2504
2463
2471
2484
2500
2496
2493
2499
2453
2446
2445
2466
2471
2489
2477
2473
2475
2478
2482
2508
2565
2535
2523
2524
2520
2493
2552
2469
2461
2480
2462
2480
2484
2485
2465
2508
2510
2524
2520
2481
2491
2478
2482
2478
2476
2474
2453
2445
2456
2480
2470
2464
2496
2520
2534
2510
2509
2521
2505
2487
2487
2446
2432
2417
2467
2465
2455
2444
2472
2426
2453
2482
2511
2499
2513
2513
2489
2472
2464
2459
2492
2478
2477
2468
2466
2481
2497
2530
2538
2477
2506
2487
2464
2506
2486
2445
2420
2467
2492
2501
2498
2503
2461
2465
2442
2502
2494
2486
2479
2470
2466
2484
2439
2431
2455
2472
2483
2490
2496
2446
2498
2492
2501
2498
2511
2509
2494
2484
2464
2481
2487
2494
2476
2496
2489
2462
2501
2504
2535
2505
2455
2487
2488
2473
2487
2465
2478
2394
2413
2477
2463
2491
2481
2482
2460
2440
2455
2500
2473
2457
2445
2435
2436
2489
2531
2516
2496
2505
2498
2527
2492
2528
2504
2514
2522
2516
2466
2485
2475
2475
2425
2462
2460
2487
2484
2453
2468
2467
2488
2439
2505
2502
2501
2509
2477
2485
2470
2427
2455
2485
2480
2488
2476
2458
2498
2522
2531
2508
2503
2507
2472
2491
2467
2456
2463
2478
2458
2466
2431
2461
2472
2454
2453
2456
2478
2515
2520
2564
2521
2482
2465
2449
2448
2493
2492
2513
2490
2481
2465
2455
2510
2500
2528
2488
2484
2494
2464
2454
2453
2453
2484
2469
2470
2495
2467
2476
2497
2491
2496
2497
2551
2469
2458
2461
2497
2438
2462
2485
2473
2492
2526
2487
2538
2494
2506
2471
2509
2503
2489
2482
2454
2495
2437
2486
2466
2492
2437
2412
2485
2487
2454
2456
2512
2487
2491
2509
2501
2452
2431
2473
2441
2460
2451
2445
2487
2502
2550
2509
2514
2502
2503
2512
2499
2467
2420
2453
2481
2481
2493
2492
2500
2469
2475
2434
2487
2503
2489
2479
2486
2462
2428
2402
2462
2478
2478
2483
2493
2466
2512
2507
2535
2523
2495
2506
2492
2472
2500
2440
2472
2461
2459
2476
2468
2483
2490
2484
2519
2493
2499
2493
2482
2478
2477
2439
2423
2421
2395
2420
2432
2508
2471
2475
2497
2547
2531
2493
2507
2514
2500
2478
2462
2447
2461
2469
2487
2490
2471
2467
2497
2520
2501
2478
2499
2503
2498
2434
2476
2461
2409
2467
2469
2484
2490
2497
2482
2466
2520
2513
2518
2493
2502
2501
2509
2496
2464
2403
2427
2495
2479
2484
2491
2465
2470
2525
2530
2498
2489
2486
2486
2457
2460
2463
2500
2476
2441
2476
2481
2494
2477
2473
2515
2493
2491
2495
2466
2516
2497
2490
2394
2429
2459
2472
2490
2584
2488
2435
2478
2530
2512
2516
2512
2510
2503
2478
2484
2467
2437
2473
2466
2486
2510
2490
2492
2508
2468
2481
2481
2492
2446
2420
2435
2441
2445
2470
2466
2491
2496
2415
2478
2490
2480
2520
2541
2511
2509
2488
2494
2465
2485
2478
2461
2476
2477
2487
2482
2483
2508
2497
2493
2526
2517
2504
2491
2461
2462
2477
2477
2461
2459
2456
2463
2418
2466
2511
2536
2542
2561
2560
2525
2508
2524
2499
2474
2425
2478
2447
2486
2481
2467
2464
2463
2503
2509
2490
2476
2487
2481
2468
2487
2465
2482
2470
2492
2485
2474
2475
2490
2514
2506
2505
2501
2505
2505
2498
2447
2461
2461
2475
2466
2483
2479
2468
2471
2496
2484
2512
2492
2478
2489
2491
2494
2475
2458
2436
2433
2468
2465
2468
2471
2488
2510
2497
2442
2488
2494
2524
2514
2507
2481
2480
2441
2405
2462
2478
2472
2470
2436
2499
2481
2534
2512
2509
2508
2499
2444
2467
2470
2475
2454
2447
2479
2489
2501
2479
2496
2459
2503
2510
2506
2492
2455
2495
2476
2476
2463
2493
2476
2471
2508
2468
2509
2521
2530
2457
2484
2471
2489
2499
2455
2474
2474
2483
2479
2487
2491
2478
2492
2486
2490
2447
2508
2503
2511
2486
2456
2442
2437
2429
2440
2452
2442
2492
2502
2466
2205
2211
2169
2141
2140
2140
2153
2219
2282
2306
2271
2282
2319
2308
2290
2246
2166
2165
2186
2208
2233
2240
2255
2202
2248
2253
2296
2265
2332
2288
2238
2221
2228
2234
2252
2245
2240
2210
2234
2286
2241
2263
2220
2290
2320
2305
2255
2265
2256
2234
2209
2203
2241
2261
2243
2200
2174
2214
2181
2161
2164
2183
2265
2307
2310
2191
2162
2188
2230
2233
2209
2181
2175
2220
2181
2188
2227
2173
2250
2328
2300
2278
2257
2244
2304
2300
2272
2265
2235
2290
2282
2274
2260
2252
2285
2258
2258
2212
2242
2229
2200
2164
2204
2234
2259
2236
2214
2292
2234
2175
2205
2242
2231
2244
2327
2286
2259
2212
2209
2226
2180
2192
2269
2249
2245
2293
2304
2239
2223
2159
2227
2252
2265
2236
2272
2293
2265
2268
2225
2183
2254
2358
2269
2094
2181
2207
2224
2285
2306
2286
2267
2208
2192
2187
2164
2150
2193
2273
2288
2263
2247
2212
2240
2213
2206
2261
2260
2229
2207
2212
2258
2276
2237
2202
2220
2247
2324
2291
2228
2219
2232
2216
2249
2220
2190
2201
2242
2270
2241
2291
2351
2291
2211
2185
2220
2212
2243
2229
2226
2179
2212
2190
2221
2252
2246
2207
2262
2268
2259
2235
2230
2181
2203
2229
2248
2207
2198
2202
2238
2224
2272
2278
2241
2225
2251
2212
2227
2181
2222
2237
2207
2211
2241
2220
2200
2178
2182
2165
2267
2269
2242
2172
2153
2152
2219
2197
2191
2285
2285
2276
2229
2232
2250
2218
2245
2203
2235
2243
2239
2251
2243
2206
2255
2257
2284
2268
2260
2231
2210
2201
2224
2256
2265
2256
2234
2242
2252
2263
2180
2201
2234
2244
2250
2242
2273
2264
2224
2194
2225
2239
2276
2215
2173
2213
2174
2193
2197
2177
2207
2243
2280
2303
2278
2203
2208
2234
2241
2272
2227
2166
2190
2210
2224
2250
2288
2287
2237
2212
2221
2256
2201
2226
2239
2235
2261
2247
2245
2285
2286
2265
2222
2179
2216
2236
2221
2241
2169
2170
2196
2238
2229
2279
2298
2254
2237
2274
2231
2221
2202
2210
2149
2158
2177
2218
2240
2210
2188
2260
2292
2268
2256
2295
2273
2231
2194
2172
2137
2136
2131
2205
2239
2282
2289
2286
2302
2288
2284
2259
2276
2236
2249
2235
2215
2166
2159
2193
2192
2192
2251
2250
2276
2253
2272
2291
2261
2300
2258
2221
2196
2255
2148
2208
2236
2333
2252
2244
2237
2308
2320
2254
2174
2193
2276
2277
2221
2177
2179
2201
2173
2139
2146
2130
2186
2249
2195
2190
2180
2212
2302
2282
2276
2250
2171
2242
2220
2148
2151
2091
2178
2223
2181
2280
2335
2292
2289
2265
2279
2299
2299
2249
2221
2204
2167
2190
2197
2237
2223
2305
2231
2168
2272
2318
2297
2293
2168
2177
2228
2272
2255
2171
2144
2222
2255
2211
2198
2234
2235
2234
2230
2242
2243
2168
2208
2190
2145
2088
2127
2120
2212
2261
2259
2306
2260
2256
2257
2359
2389
2332
2156
2089
2128
2175
2135
2158
2161
2087
2172
2219
2211
2243
2335
2369
2264
2262
2176
2145
2142
2193
2295
2201
2196
2166
2236
2330
2272
2277
2190
2070
2307
2252
2269
2258
2269
2273
2254
2246
2218
2193
2191
2138
2068
2095
2176
2210
2307
2374
2290
2269
2252
2305
2256
2254
2261
2254
2184
2143
2133
2177
2173
2218
2234
2260
2197
2177
2191
2213
2251
2206
2181
2182
2161
2152
2189
2212
2209
2174
2147
2225
2307
2321
2302
2239
2212
2235
2258
2195
2235
2240
2248
2201
2160
2234
2246
2185
2189
2196
2182
2230
2239
2268
2227
2212
2222
2153
2147
2164
2191
2200
2237
2240
2163
2124
2204
2303
2356
2333
2309
2272
2262
2177
2215
2193
2289
2184
2162
2174
2217
2226
2211
2186
2285
2287
2321
2229
2196
2225
2256
2249
2242
2125
2142
2228
2233
2233
2230
2271
2289
2204
2199
2175
2199
2205
2205
2202
2195
2196
2135
2156
2154
2109
2199
2225
2240
2300
2293
2277
2237
2276
2202
2134
2110
2193
2201
2207
2205
2301
2135
2262
2330
2333
2284
2289
2258
2256
2290
2223
2189
2268
2217
2151
2250
2211
2197
2205
2202
2175
2230
2199
2218
2246
2266
2263
2246
2189
2193
2255
2217
2212
2183
2235
2309
2196
2240
2190
2151
2171
2215
2206
2222
2211
2182
2191
2153
2175
2242
2271
2205
2176
2192
2177
2213
2209
2243
2213
2197
2146
2097
2177
2180
2162
2211
2190
2151
2182
2220
2234
2180
2249
2258
2307
2321
2313
2276
2290
2302
2293
2189
2086
2175
2209
2206
2237
2191
2228
2208
2172
2181
2231
2247
2192
2227
2240
2253
2182
2210
2134
2130
2153
2226
2206
2198
2272
2267
2268
2294
2266
2180
2171
2221
2171
2196
2158
2122
2123
2119
2167
2236
2190
2258
2278
2235
2243
2227
2211
2182
2156
2178
2193
2208
2219
2184
2207
2297
2274
2203
2222
2264
2268
2269
2281
2253
2207
2175
2129
2138
2157
2213
2251
2262
2178
2166
2268
2246
2205
2216
2256
2221
2233
2236
2272
2245
2207
2215
2227
2217
2161
2129
2225
2292
2274
2254
2229
2217
2191
2171
2129
2105
2126
2147
2200
2223
2212
2243
2210
2232
2219
2105
2058
2178
2237
2200
2193
2215
2213
2285
2347
2271
2236
2240
2226
2148
2257
2243
2271
2291
2270
2204
2151
2212
2192
2181
2162
2171
2248
2169
2185
2198
2243
2268
2280
2252
2185
2215
2250
2233
2178
2205
2132
2148
2225
2229
2257
2301
2212
2194
2221
2304
2208
2138
2194
2269
2280
2156
2158
2157
2235
2128
2153
2239
2234
2163
2200
2311
2284
2195
2207
2268
2253
2220
2244
2189
2118
2107
2176
2222
2228
2254
2168
2161
2227
2203
2136
2062
2233
2233
2162
2268
2325
2298
2223
2196
2239
2262
2182
2157
2213
2263
2222
2124
2132
2204
2234
2293
2283
2197
2204
2235
2219
2260
2293
2321
2219
2084
2095
2227
2205
2230
2261
2234
2201
2187
2222
2237
2163
2184
2224
2177
2146
2179
2188
2135
2149
2247
2253
2255
2255
2231
2144
2099
2199
2254
2215
2174
2165
2209
2235
2186
2197
2288
2284
2198
2194
2189
2159
2204
2232
2190
2198
2217
2178
2230
2277
2327
2274
2195
2147
2215
2246
2271
2172
2164
2172
2171
2184
2213
2243
2250
2228
2211
2245
2214
2226
2234
2245
2176
2219
2250
2219
2154
2199
2213
2215
2167
2188
2181
2227
2202
2287
2221
2223
2167
2213
2211
2212
2261
2241
2176
2135
2174
2230
2221
2216
2213
2294
2299
2285
2150
2101
2241
2154
2112
2121
2213
2163
2130
2152
2240
2270
2223
2201
2230
2252
2285
2253
2256
2265
2231
2200
2202
2260
2224
2199
2212
2205
2203
2215
2218
2248
2215
2227
2199
2196
2195
2160
2113
2205
2164
2158
2166
2256
2265
2158
2291
2275
2299
2213
2248
2234
2231
2199
2204
2210
2191
2243
2182
2211
2213
2235
2265
2252
2235
2249
2260
2282
2275
2205
2189
2156
2175
2191
2178
2131
2125
2200
2244
2263
2261
2244
2237
2242
2233
2178
2235
2244
2263
2322
2298
2092
2061
2157
2142
2093
2187
2242
2236
2266
2298
2260
2230
2210
2184
2288
2231
2196
2192
2194
2221
2246
2191
2175
2303
2314
2313
2235
2222
2223
2207
2194
2227
2213
2190
2189
2159
2167
2201
2237
2318
2269
2150
2251
2254
2239
2208
2194
2239
2227
2234
2222
2216
2155
2175
2178
2231
2227
2208
2253
2259
2229
2193
2227
2199
2161
2167
2173
2144
2161
2185
2225
2238
2254
2264
2234
2212
2204
2191
2178
2139
2199
2161
2131
2188
2177
2228
2277
2249
2285
2317
2302
2293
2230
2270
2241
2154
2134
2195
2303
2257
2211
2222
2236
2226
2206
2248
2256
2256
2282
2221
2224
2246
2288
2302
2226
2185
2180
2184
2188
2223
2230
2211
2191
2201
2194
2277
2287
2376
2286
2220
2221
2228
2218
2139
2181
2208
2156
2140
2193
2221
2252
2224
2310
2262
2234
2226
2131
2125
2145
2189
2212
2236
2231
2191
2229
2302
2332
2256
2252
2224
2231
2239
2242
2245
2205
2154
2243
2197
2207
2202
2151
2224
2192
2172
2199
2260
2233
2234
2248
2318
2305
2230
2196
2197
2244
2199
2155
2200
2214
2221
2197
2245
2291
2267
2220
2201
2240
2249
2275
2244
2202
2177
2252
2213
2236
2227
2268
2245
2188
2255
2226
2206
2239
2228
2141
2139
2102
2168
2257
2252
2273
2218
2221
2267
2293
2288
2241
2233
2202
2196
2234
2182
2168
2225
2280
2277
2242
2250
2236
2174
2154
2190
2193
2204
2183
2261
2324
2294
2246
2194
2208
2218
2241
2223
2197
2264
2249
2226
2213
2204
2286
2253
2266
2258
2243
2225
2249
2169
2179
2183
2170
2244
2226
2196
2219
2218
2268
2277
2211
2181
2206
2228
2266
2264
2253
2294
2222
2214
2219
2154
2171
2250
2211
2207
2225
2133
2151
2236
2279
2304
2196
2184
2236
2239
2334
2297
2279
2253
2165
2231
2240
2243
2264
2291
2291
2290
2198
2195
2116
2122
2181
2099
2071
2217
2264
2241
2246
2298
2297
2293
2263
2248
2251
2239
2240
2220
2161
2128
2246
2292
2299
2239
2244
2230
2250
2276
2220
2128
2167
2233
2222
2193
2163
2213
2246
2249
2170
2156
2184
2290
2345
2327
2230
2106
2183
2271
2331
2279
2204
2212
2217
2231
2258
2215
2253
2248
2258
2290
2207
2191
2206
2243
2275
2214
2221
2263
2210
2210
2240
2247
2280
2264
2294
2237
2221
2235
2180
2222
2180
2203
2205
2151
2143
2184
2214
2241
2209
2165
2188
2184
2222
2248
2240
2227
2225
2245
2242
2287
2275
2241
2200
2193
2228
2216
2231
2201
2205
2303
2277
2225
2261
2266
2214
2252
2250
2227
2326
2295
2189
2244
2239
2240
2232
2228
2295
2270
2264
2251
2219
2201
2207
2224
2185
2253
2229
2227
2219
2227
2246
2261
2296
2288
2269
2259
2196
2144
2239
2208
2192
2157
2138
2231
2338
2277
2163
2218
2198
2220
2171
2164
2220
2214
2236
2229
2169
2143
2163
2170
2162
2244
2293
2292
2291
2306
2274
2270
2239
2219
2232
2217
2201
2179
2233
2267
2274
2253
2240
2255
2237
2235
2255
2239
2260
2247
2234
2248
2241
2204
2153
2148
2194
2243
2274
2262
2273
2243
2249
2250
2284
2268
2240
2233
2235
2266
2182
2230
2215
2160
2174
2191
2217
2202
2170
2166
2163
2283
2311
2263
2235
2196
2268
2258
2266
2287
2185
2153
2211
2200
2179
2167
2185
2261
2237
2249
2210
2209
2257
2254
2331
2307
2200
2200
2176
2214
2280
2274
2330
2299
2239
2226
2271
2264
2226
2185
2261
2236
2219
2200
2142
2227
2281
2277
2264
2221
2243
2273
2141
2130
2227
2270
2271
2301
2267
2208
2209
2233
2248
2241
2211
2167
2196
2170
2137
2157
2245
2294
2296
2256
2230
2251
2234
2169
2207
2244
2213
2216
2152
2138
2146
2162
2267
2216
2361
2316
2253
2223
2187
2205
2268
2299
2280
2261
2245
2268
2211
2184
2268
2256
2269
2228
2275
2258
2228
2223
2212
2239
2238
2220
2227
2246
2211
2275
2224
2240
2219
2194
2074
2204
2304
2379
2329
2197
2134
2244
2227
2271
2276
2215
2221
2253
2217
2118
2118
2213
2246
2263
2281
2260
2194
2225
2241
2195
2195
2205
2203
2271
2344
2344
2252
2160
2222
2315
2266
2216
2221
2263
2267
2264
2187
2193
2206
2294
2321
2288
2186
2164
2174
2130
2188
2313
2256
2243
2234
2268
2352
2261
2260
2241
2255
2213
2170
2164
2196
2260
2252
2306
2214
2200
2238
2262
2266
2245
2244
2230
2200
2184
2250
2279
2261
2191
2207
2240
2237
2225
2210
2242
2334
2240
2276
2180
2171
2201
2266
2258
2156
2192
2191
2262
2299
2224
2177
2213
2166
2194
2278
2260
2284
2261
2307
2275
2228
2194
2252
2217
2214
2174
2218
2402
2253
2206
2065
2140
2268
2325
2306
2297
2269
2227
2219
2230
2250
2226
2148
2158
2142
2198
2255
2243
2190
2209
2193
2168
2208
2261
2262
2207
2233
2229
2269
2226
2249
2235
2186
2215
2169
2178
2271
2299
2294
2288
2145
2213
2306
2265
2138
2157
2202
2266
2174
2176
2165
2201
2301
2261
2169
2285
2310
2355
2273
2231
2221
2117
2104
2294
2209
2232
2289
2168
2220
2246
2306
2276
2265
2250
2289
2198
2285
2252
2271
2321
2295
2176
2152
2118
2208
2330
2317
2265
2213
2203
2298
2293
2240
2208
2221
2101
2137
2176
2111
2152
2261
2297
2271
2259
2231
2258
2258
2162
2172
2226
2249
2202
2177
2221
2199
2208
2177
2187
2260
2210
2309
2224
2098
2319
2294
2204
2304
2338
2298
2303
2282
2222
2208
2177
2179
2214
2242
2245
2292
2303
2281
2323
2254
2261
2254
2257
2213
2191
2187
2164
2140
2203
2307
2275
2221
2159
2181
2212
2218
2228
2194
2278
2255
2185
2173
2202
2264
2246
2279
2274
2248
2267
2295
2260
2260
2185
2064
2165
2053
2164
2195
2173
2256
2288
2102
2267
2318
2268
2279
2253
2253
2240
2221
2228
2240
2319
2357
2273
2242
2174
2206
2201
2227
2213
2284
2286
2243
2235
2231
2299
2197
2186
2208
2222
2343
2238
2243
2186
2224
2330
2273
2189
2195
2147
2132
2182
2252
2274
2258
2251
2228
2270
2341
2325
2185
2183
2226
2117
2216
2205
2239
2372
2327
2256
2241
2188
2170
2226
2268
2339
2329
2182
2097
2159
2174
2199
2199
2141
2140
2144
2227
2172
2184
2277
2336
2296
2347
2299
2258
2197
2243
2307
2262
2250
2225
2185
2229
2213
2231
2242
2272
2240
2213
2219
2200
2217
2191
2209
2242
2227
2257
2222
2284
2333
2301
2249
2122
2158
2230
2256
2185
2200
2203
2202
2239
2225
2189
2185
2297
2329
2290
2253
2240
2252
2299
2219
2188
2189
2266
2265
2223
2189
2214
2210
2281
2309
2261
2201
2144
2212
2193
2129
2279
2283
2202
2231
2241
2281
2228
2201
2233
2183
2150
2170
2273
2189
2227
2292
2375
2344
2242
2244
2243
2194
2247
2228
2161
2233
2217
2207
2331
2341
2327
2296
2308
2256
2274
2197
2142
2148
2162
2227
2277
2236
2248
2216
2248
2210
2199
2286
2282
2279
2228
2250
2230
2173
2148
2181
2228
2296
2290
2264
2243
2261
2243
2263
2253
2214
2235
2172
2140
2082
2070
2138
2186
2203
2234
2390
2304
2240
2289
2343
2189
2269
2173
2244
2276
2223
2183
2215
2273
2287
2252
2213
2265
2273
2258
2286
2265
2209
2239
2199
2169
2262
2288
2276
2259
2223
2221
2241
2296
2249
2245
2241
2227
2206
2281
2354
2241
2102
2236
2254
2247
2266
2264
2259
2251
2252
2261
2237
2216
2181
2151
2121
2182
2236
2270
2232
2255
2264
2189
2207
2203
2282
2230
2253
2251
2236
2265
2178
2187
2207
2187
2116
2009
2128
2265
2246
2204
2414
2408
2355
2275
2279
2225
2291
2320
2302
2307
2306
2253
2261
2247
2250
2227
2237
2233
2241
2246
2305
2273
2281
2179
2262
2263
2250
2186
2223
2250
2267
2253
2202
2164
2193
2235
2242
2247
2298
2333
2342
2250
2160
2181
2230
2191
2128
2194
2221
2217
2214
2263
2270
2216
2163
2133
2243
2261
2212
2226
2186
2171
2126
2215
2245
2283
2282
2202
2202
2213
2185
2272
2275
2277
2251
2260
2311
2322
2327
2296
2222
2200
2259
2279
2243
2284
2233
2194
2202
2233
2294
2333
2273
2256
2267
2268
2228
2225
2251
2233
2212
2224
2213
2266
2202
2180
2281
2271
2268
2293
2294
2253
2232
2245
2207
2165
2200
2217
2241
2309
2289
2270
2272
2230
2112
2189
2211
2205
2211
2287
2290
2312
2286
2218
2285
2236
2260
2139
2106
2149
2160
2179
2147
2204
2200
2220
2290
2264
2278
2225
2198
2157
2267
2260
2216
2226
2240
2268
2345
2330
2287
2223
2239
2206
2215
2257
2265
2295
2259
2289
2307
2226
2202
2295
2272
2299
2218
2182
2242
2310
2333
2309
2211
2241
2232
2253
2272
2169
2195
2250
2203
2213
2257
2250
2231
2236
2251
2327
2270
2127
2148
2190
2208
2291
2279
2291
2290
2307
2259
2207
2187
2227
2165
2229
2255
2235
2115
2187
2169
2170
2272
2340
2290
2339
2337
2360
2219
2261
2249
2220
2235
2224
2225
2190
2220
2269
2300
2257
2166
2256
2284
2254
2262
2293
2338
2291
2206
2196
2228
2250
2220
2291
2266
2210
2175
2234
2320
2288
2224
2265
2233
2270
2235
2235
2268
2259
2257
2183
2210
2205
2251
2196
2202
2281
2286
2325
2298
2239
2189
2175
2167
2140
2264
2274
2257
2262
2233
2237
2211
2261
2253
2294
2285
2313
2270
2275
2204
2192
2214
2204
2221
2305
2324
2334
2282
2243
2252
2270
2234
2247
2138
2275
2249
2292
2244
2202
2171
2218
2161
2202
2333
2335
2276
2177
2181
2258
2300
2227
2155
2246
2301
2335
2293
2190
2227
2258
2258
2276
2226
2182
2247
2246
2263
2221
2217
2251
2283
2228
2211
2225
2248
2214
2271
2289
2263
2281
2225
2299
2297
2206
2229
2235
2282
2253
2195
2193
2242
2265
2236
2202
2204
2234
2257
2214
2272
2283
2256
2250
2260
2202
2219
2348
2439
2302
2227
2236
2239
2207
2232
2254
2253
2273
2253
2211
2201
2268
2249
2243
2239
2225
2173
2202
2246
2280
2273
2255
2252
2237
2306
2333
2187
2202
2225
2162
2098
2193
2216
2260
2218
2235
2321
2294
2302
2322
2331
2292
2284
2363
2350
2281
2197
2086
2160
2244
2217
2249
2234
2303
2265
2311
2304
2285
2296
2306
2267
2246
2232
2138
2094
2140
2168
2195
2270
2266
2288
2264
2312
2252
2301
2252
2221
2191
2289
2335
2343
2230
2225
2249
2242
2222
2221
2233
2222
2185
2246
2237
2260
2262
2310
2261
2251
2281
2295
2246
2208
2254
2274
2206
2224
2271
2279
2323
2319
2235
2150
2240
2261
2290
2283
2268
2271
2255
2234
2256
2259
2218
2154
2128
2241
2231
2215
2308
2351
2292
2249
2188
2125
2234
2299
2357
2244
2195
2234
2253
2240
2225
2195
2251
2281
2334
2325
2302
2303
2291
2304
2266
2248
2166
2200
2318
2400
2296
2262
2246
2288
2490
2507
2494
2481
2479
2497
2498
2476
2481
2450
2450
2419
2471
2469
2461
2471
2463
2426
2488
2463
2472
2481
2484
2480
2481
2446
2477
2445
2449
2442
2470
2473
2480
2443
2463
2491
2532
2518
2498
2509
2508
2485
2500
2470
2402
2426
2431
2459
2478
2477
2449
2485
2457
2444
2449
2488
2501
2500
2495
2488
2474
2476
2463
2484
2480
2488
2477
2470
2464
2458
2448
2452
2522
2517
2506
2497
2485
2473
2449
2454
2465
2478
2484
2461
2476
2507
2561
2502
2497
2507
2502
2497
2466
2459
2475
2445
2444
2472
2471
2465
2489
2453
2462
2487
2493
2473
2490
2504
2488
2440
2433
2426
2429
2431
2441
2460
2458
2426
2485
2478
2516
2517
2532
2501
2479
2504
2492
2468
2435
2404
2446
2479
2484
2502
2488
2459
2488
2472
2539
2507
2484
2495
2467
2432
2424
2468
2461
2475
2487
2500
2501
2465
2493
2500
2516
2515
2508
2513
2503
2522
2460
2448
2413
2421
2433
2473
2477
2481
2466
2440
2453
2481
2517
2510
2489
2484
2486
2482
2459
2471
2457
2445
2482
2478
2490
2487
2475
2424
2456
2500
2464
2450
2453
2458
2439
2416
2468
2438
2473
2484
2493
2477
2468
2497
2520
2548
2485
2495
2470
2492
2473
2436
2396
2449
2439
2458
2498
2471
2478
2464
2490
2523
2483
2506
2512
2487
2505
2495
2476
2410
2461
2481
2473
2482
2483
2457
2478
2478
2540
2502
2517
2477
2477
2469
2483
2468
2434
2410
2438
2466
2473
2494
2487
2459
2431
2501
2481
2477
2463
2465
2480
2458
2454
2441
2469
2461
2488
2488
2480
2498
2480
2515
2506
2523
2507
2482
2492
2483
2476
2459
2424
2430
2445
2466
2468
2454
2485
2483
2515
2545
2509
2503
2501
2470
2400
2477
2447
2425
2458
2467
2471
2476
2488
2464
2471
2522
2499
2515
2484
2499
2492
2478
2476
2485
2407
2431
2447
2465
2454
2489
2489
2493
2522
2491
2515
2511
2483
2502
2501
2449
2418
2421
2467
2485
2482
2487
2473
2464
2472
2508
2467
2479
2479
2486
2469
2470
2463
2478
2462
2463
2469
2468
2491
2508
2517
2467
2481
2483
2507
2501
2494
2468
2451
2438
2420
2444
2475
2475
2497
2467
2476
2488
2515
2489
2491
2510
2541
2450
2507
2482
2442
2414
2435
2478
2476
2449
2504
2461
2463
2480
2529
2488
2478
2463
2481
2458
2470
2484
2486
2458
2470
2486
2501
2488
2486
2489
2489
2494
2499
2485
2499
2450
2463
2486
2444
2468
2465
2478
2483
2486
2467
2479
2508
2503
2560
2511
2525
2507
2481
2462
2474
2469
2481
2474
2467
2475
2501
2473
2470
2491
2463
2480
2483
2493
2487
2459
2449
2418
2408
2428
2465
2476
2444
2413
2463
2508
2502
2486
2504
2500
2506
2466
2495
2453
2422
2451
2494
2481
2482
2485
2459
2477
2479
2517
2538
2502
2502
2489
2484
2493
2492
2503
2446
2471
2464
2489
2464
2474
2448
2521
2447
2473
2489
2486
2489
2467
2462
2482
2467
2483
2489
2467
2497
2495
2473
2495
2488
2503
2463
2520
2469
2459
2450
2436
2418
2436
2461
2465
2497
2574
2467
2469
2475
2481
2516
2490
2487
2465
2492
2446
2466
2478
2409
2461
2483
2497
2499
2497
2471
2465
2500
2524
2501
2492
2492
2484
2475
2448
2455
2474
2453
2484
2483
2475
2473
2493
2474
2473
2487
2494
2501
2491
2496
2484
2450
2446
2461
2475
2455
2472
2480
2468
2499
2491
2509
2514
2479
2485
2496
2518
2483
2455
2439
2490
2446
2471
2476
2467
2493
2478
2491
2476
2502
2491
2488
2483
2515
2459
2457
2436
2422
2455
2464
2483
2475
2456
2489
2517
2520
2516
2510
2510
2487
2495
2463
2446
2484
2441
2463
2469
2472
2432
2474
2493
2499
2500
2503
2498
2493
2486
2494
2476
2435
2426
2453
2474
2476
2472
2490
2480
2491
2463
2480
2466
2509
2490
2477
2496
2475
2465
2431
2469
2491
2476
2474
2479
2461
2457
2504
2475
2474
2485
2473
2466
2442
2447
2488
2458
2487
2453
2469
2465
2453
2478
2495
2478
2437
2489
2444
2510
2504
2487
2460
2446
2434
2485
2491
2491
2502
2480
2461
2494
2505
2517
2486
2492
2513
2473
2471
2452
2465
2466
2471
2480
2459
2465
2488
2478
2464
2518
2508
2486
2498
2484
2425
2510
2444
2500
2467
2466
2466
2484
2496
2486
2511
2464
2481
2504
2507
2479
2484
2484
2439
2436
2447
2435
2453
2449
2450
2434
2411
2470
2495
2496
2471
2492
2468
2440
2490
2476
2441
2503
2473
2499
2495
2502
2525
2499
2509
2516
2518
2497
2457
2491
2454
2488
2460
2412
2415
2421
2482
2496
2496
2482
2466
2485
2508
2489
2486
2515
2455
2481
2467
2427
2487
2458
2468
2460
2474
2490
2509
2481
2444
2473
2500
2474
2476
2495
2476
2451
2422
2421
2494
2473
2484
2485
2461
2513
2424
2507
2528
2484
2485
2476
2493
2493
2486
2445
2427
2412
2437
2461
2476
2457
2459
2480
2453
2494
2500
2498
2491
2501
2475
2465
2455
2470
2455
2489
2478
2522
2510
2470
2476
2489
2504
2502
2495
2500
2498
2463
2467
2452
2485
2466
2483
2473
2448
2478
2490
2498
2526
2518
2503
2436
2474
2489
2496
2482
2432
2409
2460
2484
2463
2456
2475
2529
2536
2527
2514
2510
2499
2477
2478
2467
2427
2453
2436
2454
2441
2471
2484
2487
2534
2509
2513
2496
2487
2484
2492
2497
2471
2435
2429
2427
2446
2449
2473
2479
2486
2501
2504
2511
2537
2510
2511
2503
2484
2453
2409
2462
2445
2438
2469
2457
2471
2492
2463
2460
2483
2505
2509
2514
2495
2517
2489
2449
2444
2462
2477
2488
2466
2490
2507
2488
2438
2490
2492
2468
2461
2470
2460
2459
2447
2463
2453
2475
2474
2467
2466
2466
2439
2458
2464
2472
2488
2472
2484
2478
2477
2434
2444
2493
2483
2492
2502
2486
2491
2504
2496
2479
2491
2496
2501
2495
2474
2455
2489
2494
2486
2490
2479
2484
2485
2463
2449
2468
2521
2498
2504
2508
2491
2463
2451
2473
2424
2484
2467
2396
2502
2494
2470
2443
2476
2522
2520
2497
2488
2477
2478
2460
2442
2485
2481
2464
2452
2460
2491
2512
2512
2500
2498
2487
2498
2471
2501
2489
2434
2441
2496
2487
2486
2485
2475
2482
2516
2508
2497
2507
2493
2488
2475
2444
2459
2430
2466
2462
2472
2482
2457
2488
2472
2501
2512
2511
2510
2493
2495
2494
2460
2435
2428
2468
2465
2457
2449
2487
2446
2430
2434
2519
2546
2509
2495
2496
2451
2454
2470
2456
2458
2483
2458
2466
2442
2493
2489
2478
2493
2504
2497
2492
2499
2470
2480
2466
2469
2447
2462
2455
2465
2485
2481
2500
2467
2487
2486
2506
2517
2489
2509
2483
2428
2458
2486
2500
2505
2499
2494
2505
2513
2483
2497
2512
2490
2495
2493
2489
2482
2420
2468
2456
2478
2477
2506
2462
2480
2500
2527
2500
2500
2501
2491
2483
2461
2467
2470
2445
2483
2478
2470
2472
2489
2469
2464
2478
2493
2506
2493
2503
2502
2458
2416
2461
2444
2466
2479
2502
2468
2474
2486
2505
2487
2511
2498
2508
2485
2459
2453
2479
2483
2452
2481
2470
2464
2456
2472
2455
2476
2492
2511
2510
2509
2482
2467
2485
2449
2489
2482
2494
2487
2496
2512
2479
2487
2504
2487
2470
2474
2478
2481
2498
2465
2464
2460
2456
2484
2487
2476
2499
2492
2476
2470
2440
2486
2489
2473
2470
2435
2449
2465
2451
2458
2463
2469
2450
2473
2478
2506
2535
2506
2494
2483
2479
2500
2471
2446
2490
2454
2468
2485
2451
2489
2461
2480
2447
2460
2475
2498
2492
2509
2505
2499
2482
2462
2467
2495
2500
2497
2485
2476
2478
2480
2503
2499
2507
2495
2478
2462
2463
2444
2454
2429
2485
2478
2490
2459
2502
2502
2499
2498
2485
2491
2481
2489
2487
2456
2455
2465
2473
2482
2492
2514
2456
2477
2474
2520
2508
2477
2486
2475
2489
2467
2438
2429
2450
2464
2473
2506
2504
2463
2471
2484
2500
2496
2493
2499
2453
2446
2445
2466
2471
2489
2477
2473
2475
2478
2482
2508
2565
2535
2523
2524
2520
2493
2552
2469
2461
2480
2462
2480
2484
2485
2465
2508
2510
2524
2520
2481
2491
2478
2482
2478
2476
2474
2453
2445
2456
2480
2470
2464
2496
2520
2534
2510
2509
2521
2505
2487
2487
2446
2432
2417
2467
2465
2455
2444
2472
2426
2453
2482
2511
2499
2513
2513
2489
2472
2464
2459
2492
2478
2477
2468
2466
2481
2497
2530
2538
2477
2506
2487
2464
2506
2486
2445
2420
2467
2492
2501
2498
2503
2461
2465
2442
2502
2494
2486
2479
2470
2466
2484
2439
2431
2455
2472
2483
2490
2496
2446
2498
2492
2501
2498
2511
2509
2494
2484
2464
2481
2487
2494
2476
2496
2489
2462
2501
2504
2535
2505
2455
2487
2488
2473
2487
2465
2478
2394
2413
2477
2463
2491
2481
2482
2460
2440
2455
2500
2473
2457
2445
2435
2436
2489
2531
2516
2496
2505
2498
2527
2492
2528
2504
2514
2522
2516
2466
2485
2475
2475
2425
2462
2460
2487
2484
2453
2468
2467
2488
2439
2505
2502
2501
2509
2477
2485
2470
2427
2455
2485
2480
2488
2476
2458
2498
2522
2531
2508
2503
2507
2472
2491
2467
2456
2463
2478
2458
2466
2431
2461
2472
2454
2453
2456
2478
2515
2520
2564
2521
2482
2465
2449
2448
2493
2492
2513
2490
2481
2465
2455
2510
2500
2528
2488
2484
2494
2464
2454
2453
2453
2484
2469
2470
2495
2467
2476
2497
2491
2496
2497
2551
2469
2458
2461
2497
2438
2462
2485
2473
2492
2526
2487
2538
2494
2506
2471
2509
2503
2489
2482
2454
2495
2437
2486
2466
2492
2437
2412
2485
2487
2454
2456
2512
2487
2491
2509
2501
2452
2431
2473
2441
2460
2451
2445
2487
2502
2550
2509
2514
2502
2503
2512
2499
2467
2420
2453
2481
2481
2493
2492
2500
2469
2475
2434
2487
2503
2489
2479
2486
2462
2428
2402
2462
2478
2478
2483
2493
2466
2512
2507
2535
2523
2495
2506
2492
2472
2500
2440
2472
2461
2459
2476
2468
2483
2490
2484
2519
2493
2499
2493
2482
2478
2477
2439
2423
2421
2395
2420
2432
2508
2471
2475
2497
2547
2531
2493
2507
2514
2500
2478
2462
2447
2461
2469
2487
2490
2471
2467
2497
2520
2501
2478
2499
2503
2498
2434
2476
2461
2409
2467
2469
2484
2490
2497
2482
2466
2520
2513
2518
2493
2502
2501
2509
2496
2464
2403
2427
2495
2479
2484
2491
2465
2470
2525
2530
2498
2489
2486
2486
2457
2460
2463
2500
2476
2441
2476
2481
2494
2477
2473
2515
2493
2491
2495
2466
2516
2497
2490
2394
2429
2459
2472
2490
2584
2488
2435
2478
2530
2512
2516
2512
2510
2503
2478
2484
2467
2437
2473
2466
2486
2510
2490
2492
2508
2468
2481
2481
2492
2446
2420
2435
2441
2445
2470
2466
2491
2496
2415
2478
2490
2480
2520
2541
2511
2509
2488
2494
2465
2485
2478
2461
2476
2477
2487
2482
2483
2508
2497
2493
2526
2517
2504
2491
2461
2462
2477
2477
2461
2459
2456
2463
2418
2466
2511
2536
2542
2561
2560
2525
2508
2524
2499
2474
2425
2478
2447
2486
2481
2467
2464
2463
2503
2509
2490
2476
2487
2481
2468
2487
2465
2482
2470
2492
2485
2474
2475
2490
2514
2506
2505
2501
2505
2505
2498
2447
2461
2461
2475
2466
2483
2479
2468
2471
2496
2484
2512
2492
2478
2489
2491
2494
2475
2458
2436
2433
2468
2465
2468
2471
2488
2510
2497
2442
2488
2494
2524
2514
2507
2481
2480
2441
2405
2462
2478
2472
2470
2436
2499
2481
2534
2512
2509
2508
2499
2444
2467
2470
2475
2454
2447
2479
2489
2501
2479
2496
2459
2503
2510
2506
2492
2455
2495
2476
2476
2463
2493
2476
2471
2508
2468
2509
2521
2530
2457
2484
2471
2489
2499
2455
2474
2474
2483
2479
2487
2491
2478
2492
2486
2490
2447
2508
2503
2511
2486
2456
2442
2437
2429
2440
2452
2442
2492
2502
2466
2465
2489
2511
2508
2493
2489
2482
2498
2494
2491
2491
2445
2525
2495
2455
2489
2497
2500
2481
2501
2455
2472
2502
2483
2447
2458
2454
2475
2498
2465
2479
2480
2508
2502
2492
2520
2533
2488
2506
2520
2490
2491
2484
2489
2465
2458
2475
2475
2518
2509
2472
2502
2526
2456
2489
2506
2486
2471
2453
2487
2446
2485
2444
2468
2481
2470
2475
2451
2476
2502
2491
2507
2529
2519
2510
2485
2455
2455
2490
2481
2483
2492
2489
2479
2456
2507
2525
2522
2511
2502
2496
2489
2498
2455
2416
2452
2449
2476
2482
2484
2488
2548
2499
2483
2502
2476
2475
2458
2465
2480
2503
2462
2507
2469
2483
2500
2502
2495
2481
2514
2490
2495
2546
2509
2454
2479
2455
2423
2394
2416
2449
2449
2476
2515
2459
2481
2452
2499
2481
2516
2503
2496
2485
2506
2469
2420
2467
2444
2481
2486
2480
2508
2496
2526
2508
2500
2505
2480
2507
2507
2490
2484
2439
2490
2446
2490
2496
2482
2459
2504
2511
2502
2481
2504
2509
2474
2490
2484
2467
2484
2475
2455
2489
2490
2481
2487
2468
2466
2480
2497
2476
2496
2448
2455
2454
2475
2481
2447
2464
2475
2424
2482
2467
2490
2469
2491
2500
2498
2501
2498
2501
2471
2418
2467
2475
2484
2487
2490
2454
2490
2503
2537
2504
2506
2498
2476
2456
2492
2461
2468
2487
2484
2478
2501
2503
2501
2488
2487
2475
2510
2513
2513
2513
2508
2464
2457
2476
2471
2453
2484
2478
2479
2445
2488
2537
2547
2506
2499
2479
2486
2474
2468
2469
2464
2452
2471
2475
2525
2472
2495
2494
2500
2495
2483
2497
2502
2476
2469
2435
2458
2466
2478
2476
2477
2492
2472
2493
2523
2493
2479
2505
2491
2485
2471
2496
2464
2452
2428
2484
2487
2499
2496
2461
2496
2469
2509
2505
2511
2495
2493
2456
2453
2472
2447
2457
2464
2489
2472
2496
2486
2483
2504
2475
2509
2519
2494
2496
2469
2458
2487
2453
2426
2467
2466
2460
2479
2502
2500
2521
2471
2493
2494
2472
2477
2456
2452
2401
2469
2485
2509
2489
2514
2475
2468
2496
2494
2511
2514
2485
2530
2505
2491
2475
2426
2440
2456
2509
2506
2498
2523
2519
2474
2525
2508
2508
2513
2501
2471
2475
2431
2463
2443
2449
2473
2478
2488
2459
2476
2487
2522
2483
2518
2503
2506
2484
2483
2467
2427
2449
2481
2476
2478
2485
2478
2502
2520
2518
2476
2488
2481
2456
2449
2456
2448
2489
2429
2464
2482
2463
2391
2483
2533
2502
2500
2498
2500
2481
2508
2477
2480
2447
2460
2464
2493
2512
2489
2516
2509
2494
2511
2505
2497
2488
2485
2480
2482
2469
2404
2425
2480
2479
2480
2485
2508
2526
2525
2478
2479
2501
2510
2503
2476
2473
2461
2478
2465
2451
2448
2473
2499
2484
2500
2526
2493
2528
2478
2502
2489
2503
2458
2462
2473
2457
2490
2473
2473
2508
2485
2473
2519
2508
2507
2503
2476
2461
2466
2498
2490
2437
2460
2466
2490
2482
2502
2492
2475
2503
2515
2504
2497
2491
2481
2464
2462
2464
2479
2477
2475
2474
2472
2472
2463
2478
2503
2510
2511
2481
2496
2486
2478
2483
2453
2449
2455
2475
2465
2489
2482
2511
2510
2470
2488
2489
2488
2476
2454
2488
2488
2500
2477
2501
2505
2492
2498
2500
2485
2487
2513
2531
2480
2479
2481
2467
2485
2474
2434
2459
2433
2477
2487
2483
2457
2495
2504
2535
2499
2495
2496
2485
2501
2496
2509
2493
2472
2482
2487
2529
2465
2486
2468
2489
2487
2474
2495
2490
2471
2467
2457
2433
2467
2446
2474
2490
2480
2441
2497
2457
2469
2451
2502
2519
2492
2514
2496
2469
2428
2397
2393
2462
2481
2497
2522
2486
2458
2481
2527
2518
2516
2502
2483
2480
2466
2464
2487
2484
2493
2466
2489
2493
2489
2512
2485
2482
2481
2505
2488
2470
2446
2454
2451
2448
2462
2477
2484
2459
2491
2488
2492
2466
2528
2508
2504
2491
2483
2463
2451
2470
2481
2480
2475
2497
2456
2486
2481
2471
2491
2478
2479
2457
2478
2477
2453
2471
2501
2495
2483
2498
2501
2506
2496
2494
2498
2517
2520
2506
2496
2515
2499
2462
2477
2465
2454
2479
2480
2483
2479
2504
2479
2460
2495
2485
2491
2505
2475
2487
2493
2449
2454
2473
2457
2479
2486
2514
2482
2507
2472
2502
2511
2511
2485
2474
2455
2456
2467
2440
2466
2471
2496
2448
2462
2465
2520
2531
2523
2509
2468
2523
2495
2489
2471
2435
2440
2452
2484
2498
2476
2448
2459
2476
2514
2476
2503
2493
2492
2489
2467
2430
2443
2470
2472
2480
2475
2480
2472
2473
2463
2458
2491
2513
2498
2481
2488
2471
2422
2438
2449
2482
2475
2467
2459
2459
2478
2485
2489
2502
2499
2502
2484
2491
2481
2486
2468
2476
2481
2491
2488
2508
2509
2487
2490
2493
2509
2503
2488
2505
2395
2449
2431
2478
2469
2474
2482
2520
2477
2503
2477
2482
2503
2513
2522
2497
2485
2456
2442
2427
2500
2466
2465
2471
2447
2464
2523
2474
2519
2480
2480
2491
2482
2522
2479
2438
2453
2441
2477
2473
2469
2470
2452
2471
2488
2500
2503
2459
2486
2480
2445
2422
2457
2509
2464
2472
2490
2491
2490
2489
2500
2527
2532
2525
2512
2507
2474
2481
2491
2431
2433
2459
2464
2502
2465
2420
2513
2505
2517
2498
2498
2501
2467
2445
2465
2479
2438
2471
2475
2492
2492
2492
2504
2488
2454
2489
2516
2493
2494
2481
2442
2455
2458
2439
2473
2466
2482
2479
2490
2490
2483
2506
2547
2518
2496
2505
2493
2500
2488
2447
2425
2457
2492
2473
2479
2502
2493
2471
2483
2512
2507
2507
2472
2473
2449
2432
2410
2420
2431
2441
2477
2488
2485
2459
2462
2509
2502
2542
2511
2513
2543
2496
2487
2486
2441
2474
2486
2477
2459
2462
2445
2443
2424
2520
2519
2517
2522
2522
2482
2469
2440
2487
2476
2469
2483
2487
2467
2467
2504
2472
2484
2496
2513
2525
2486
2500
2484
2498
2436
2458
2480
2500
2490
2495
2497
2490
2483
2495
2502
2526
2490
2495
2463
2437
2437
2467
2475
2484
2485
2450
2461
2500
2521
2496
2512
2505
2493
2493
2472
2487
2489
2462
2481
2484
2474
2470
2487
2467
2457
2454
2504
2462
2480
2497
2488
2462
2431
2469
2485
2471
2483
2474
2501
2516
2523
2506
2483
2470
2492
2515
2482
2503
2467
2453
2428
2450
2460
2460
2469
2445
2441
2476
2487
2498
2497
2491
2500
2520
2498
2497
2467
2507
2506
2480
2487
2498
2500
2501
2476
2503
2488
2500
2499
2503
2498
2482
2471
2480
2479
2477
2465
2475
2460
2491
2460
2447
2504
2518
2490
2504
2504
2498
2479
2484
2481
2478
2491
2432
2477
2479
2486
2491
2489
2522
2496
2499
2507
2484
2496
2482
2479
2486
2461
2461
2471
2487
2481
2478
2503
2498
2453
2485
2506
2506
2496
2515
2502
2473
2420
2452
2475
2480
2483
2470
2469
2455
2458
2486
2512
2511
2501
2525
2478
2481
2476
2523
2480
2458
2470
2477
2479
2466
2483
2483
2507
2474
2467
2450
2459
2469
2483
2426
2498
2479
2470
2500
2485
2484
2539
2522
2510
2525
2498
2481
2473
2484
2476
2455
2469
2464
2466
2479
2459
2503
2503
2500
2511
2508
2481
2491
2500
2535
2498
2493
2489
2466
2433
2474
2486
2487
2485
2506
2457
2481
2495
2504
2516
2508
2473
2443
2463
2475
2436
2423
2458
2462
2479
2491
2491
2496
2509
2471
2470
2486
2496
2490
2488
2449
2468
2470
2445
2430
2456
2460
2464
2458
2459
2499
2529
2488
2519
2521
2503
2500
2486
2461
2453
2461
2478
2473
2483
2486
2489
2492
2474
2491
2521
2503
2506
2503
2497
2499
2471
2465
2457
2468
2481
2480
2481
2473
2499
2526
2538
2490
2433
2455
2513
2510
2494
2482
2428
2438
2499
2484
2472
2430
2464
2486
2517
2510
2509
2505
2500
2505
2508
2489
2436
2445
2441
2490
2501
2477
2489
2470
2481
2484
2510
2492
2496
2498
2477
2478
2449
2442
2465
2460
2477
2476
2472
2465
2475
2494
2496
2498
2511
2497
2495
2469
2477
2478
2470
2523
2471
2482
2478
2466
2443
2476
2476
2537
2506
2526
2514
2503
2509
2450
2467
2443
2457
2478
2491
2489
2498
2470
2469
2478
2486
2484
2506
2497
2499
2471
2471
2456
2475
2456
2498
2476
2484
2459
2474
2510
2520
2504
2503
2504
2487
2481
2482
2476
2465
2442
2491
2484
2473
2490
2483
2473
2449
2484
2468
2465
2492
2498
2510
2493
2481
2469
2501
2475
2480
2502
2496
2506
2471
2517
2478
2501
2513
2513
2508
2502
2502
2468
2414
2429
2493
2487
2493
2497
2461
2503
2519
2546
2488
2507
2504
2487
2483
2489
2495
2484
2494
2501
2468
2484
2454
2490
2497
2534
2508
2535
2491
2480
2480
2496
2471
2463
2406
2421
2470
2483
2496
2487
2470
2475
2543
2530
2503
2517
2492
2464
2426
2478
2455
2513
2486
2490
2483
2474
2507
2505
2501
2516
2506
2503
2496
2454
2481
2500
2473
2439
2455
2470
2494
2484
2490
2500
2494
2525
2493
2513
2480
2493
2478
2450
2422
2496
2553
2498
2479
2492
2489
2490
2490
2475
2500
2527
2505
2507
2497
2481
2483
2466
2450
2473
2431
2464
2457
2467
2465
2458
2441
2435
2493
2483
2481
2514
2518
2510
2495
2460
2468
2453
2471
2478
2483
2459
2467
2499
2528
2527
2521
2504
2494
2483
2485
2483
2480
2484
2492
2484
2482
2475
2477
2455
2454
2516
2526
2513
2503
2481
2493
2499
2493
2448
2460
2483
2467
2476
2474
2478
2495
2493
2534
2516
2507
2514
2495
2478
2482
2462
2496
2481
2471
2476
2478
2497
2452
2474
2503
2544
2516
2507
2506
2507
2504
2496
2489
2447
2442
2495
2485
2486
2505
2464
2502
2491
2497
2484
2516
2521
2504
2502
2458
2453
2463
2480
2461
2474
2477
2441
2447
2457
2485
2509
2511
2506
2503
2513
2470
2451
2458
2480
2489
2506
2500
2517
2460
2517
2519
2562
2554
2504
2510
2524
2463
2488
2471
2478
2478
2472
2479
2463
2472
2486
2475
2505
2521
2485
2491
2510
2505
2495
2491
2463
2407
2433
2470
2472
2476
2477
2490
2477
2498
2499
2529
2535
2508
2508
2502
2465
2455
2427
2481
2456
2456
2472
2454
2450
2488
2503
2512
2502
2497
2496
2514
2472
2516
2486
2446
2452
2470
2488
2497
2494
2502
2502
2493
2449
2466
2490
2482
2457
2476
2461
2425
2473
2485
2492
2475
2460
2481
2490
2514
2552
2540
2507
2514
2486
2504
2494
2488
2474
2467
2463
2474
2477
2516
2485
2448
2474
2481
2493
2477
2499
2500
2480
2463
2483
2399
2456
2470
2489
2485
2491
2474
2474
2515
2496
2519
2496
2481
2482
2484
2496
2491
2455
2432
2481
2479
2508
2487
2496
2470
2487
2499
2546
2492
2495
2484
2483
2506
2450
2417
2422
2469
2471
2480
2495
2466
2440
2474
2464
2483
2533
2532
2504
2513
2512
2459
2426
2487
2480
2480
2494
2489
2456
2484
2519
2477
2493
2516
2501
2490
2473
2460
2449
2454
2479
2474
2489
2486
2488
2502
2483
2482
2502
2500
2487
2483
2482
2494
2457
2489
2485
2468
2445
2474
2485
2497
2430
2488
2486
2478
2496
2479
2493
2462
2478
2482
2500
2441
2503
2506
2498
2475
2514
2503
2499
2505
2496
2518
2511
2468
2497
2460
2472
2468
2497
2489
2487
2490
2524
2467
2484
2473
2482
2492
2501
2500
2495
2498
2489
2467
2438
2453
2471
2487
2487
2500
2461
2481
2459
2474
2491
2502
2507
2491
2492
2479
2505
2476
2461
2495
2490
2490
2498
2479
2495
2474
2531
2454
2486
2502
2486
2499
2471
2415
2414
2425
2489
2472
2481
2499
2476
2468
2493
2538
2513
2513
2493
2539
2465
2504
2498
2511
2470
2509
2479
2484
2489
2462
2487
2461
2496
2513
2501
2493
2499
2462
2462
2461
2480
2482
2480
2480
2486
2462
2522
2554
2540
2498
2509
2498
2496
2460
2470
2481
2465
2463
2473
2494
2489
2495
2478
2470
2407
2521
2482
2486
2478
2473
2457
2490
2497
2508
2468
2457
2497
2497
2508
2494
2478
2467
2473
2489
2493
2483
2476
2455
2469
2461
2483
2445
2499
2476
2491
2469
2484
2512
2546
2514
2497
2502
2506
2485
2463
2485
2490
2483
2469
2482
2474
2491
2469
2488
2518
2475
2500
2509
2514
2502
2516
2483
2458
2428
2422
2456
2472
2486
2483
2484
2487
2529
2535
2499
2514
2507
2491
2447
2505
2495
2455
2453
2484
2489
2481
2499
2473
2437
2464
2464
2512
2505
2502
2492
2483
2465
2454
2456
2465
2490
2506
2482
2452
2491
2506
2507
2539
2503
2538
2504
2482
2504
2471
2438
2423
2424
2470
2488
2499
2518
2487
2493
2488
2538
2511
2514
2520
2491
2493
2466
2417
2423
2483
2479
2476
2491
2476
2493
2505
2495
2512
2513
2510
2523
2514
2468
2455
2455
2478
2460
2475
2462
2481
2470
2438
2487
2513
2501
2507
2501
2504
2474
2471
2508
2489
2488
2475
2488
2514
2488
2498
2488
2495
2524
2503
2508
2494
2495
2487
2499
2498
2463
2487
2489
2480
2494
2474
2470
2496
2524
2513
2504
2495
2488
2480
2469
2449
2416
2481
2438
2396
2483
2503
2499
2529
2498
2513
2503
2494
2501
2513
2509
2463
2501
2488
2476
2456
2481
2486
2527
2515
2517
2509
2479
2521
2513
2513
2493
2502
2477
2458
2462
2502
2442
2487
2489
2479
2491
2498
2512
2493
2508
2531
2507
2506
2500
2495
2457
2413
2413
2477
2486
2495
2480
2471
2494
2519
2525
2485
2526
2506
2501
2508
2519
2484
2460
2443
2460
2477
2497
2503
2495
2497
2534
2496
2504
2507
2501
2514
2467
2457
2443
2486
2457
2469
2480
2446
2485
2489
2499
2457
2467
2503
2463
2501
2491
2495
2495
2462
2506
2508
2491
2495
2500
2454
2472
2505
2561
2518
2529
2518
2495
2498
2490
2468
2524
2457
2459
2459
2464
2478
2468
2472
2487
2461
2488
2507
2508
2509
2511
2515
2479
2474
2453
2502
2481
2495
2475
2471
2502
2512
2552
2498
2492
2501
2493
2483
2492
2465
2418
2416
2446
2477
2474
2499
2465
2465
2505
2536
2475
2467
2484
2509
2485
2473
2478
2476
2475
2494
2495
2497
2496
2484
2495
2497
2491
2503
2515
2514
2507
2517
2492
2468
2448
2467
2489
2499
2491
2499
2490
2531
2563
2527
2516
2507
2509
2502
2510
2485
2429
2509
2466
2461
2481
2490
2485
2511
2510
2454
2480
2490
2499
2492
2510
2502
2472
2439
2496
2477
2477
2491
2495
2483
2500
2507
2501
2486
2510
2462
2495
2510
2475
2464
2423
2422
2444
2478
2475
2483
2466
2500
2502
2529
2483
2508
2516
2508
2477
2469
2470
2466
2471
2489
2489
2503
2502
2491
2505
2530
2477
2495
2512
2495
2498
2499
2476
2434
2411
2452
2488
2487
2500
2506
2538
2516
2509
2512
2520
2493
2490
2490
2458
2466
2412
2474
2463
2459
2484
2489
2490
2474
2464
2538
2531
2515
2507
2496
2477
2462
2460
2442
2401
2481
2467
2499
2507
2501
2467
2479
2493
2530
2505
2515
2524
2542
2481
2475
2465
2488
2479
2487
2495
2478
2471
2511
2536
2526
2487
2525
2491
2500
2480
2450
2486
2452
2456
2446
2497
2475
2514
2522
2472
2473
2452
2518
2502
2505
2490
2481
2460
2426
2455
2459
2467
2500
2485
2452
2484
2481
2535
2544
2501
2504
2513
2484
2488
2503
2498
2483
2491
2502
2473
2468
2469
2485
2520
2512
2516
2502
2508
2506
2512
2509
2477
2435
2477
2496
2515
2491
2499
2471
2469
2501
2547
2514
2499
2524
2500
2492
2500
2481
2475
2454
2435
2469
2454
2482
2495
2504
2525
2496
2522
2506
2517
2488
2467
2482
2480
2452
2460
2453
2492
2488
2520
2513
2484
2506
2522
2514
2515
2502
2529
2476
2452
2437
2463
2453
2471
2488
2460
2433
2457
2480
2497
2513
2507
2534
2516
2516
2475
2496
2505
2495
2466
2523
2504
2502
2506
2502
2495
2533
2518
2493
2504
2494
2513
2488
2477
2422
2448
2432
2464
2473
2504
2480
2486
2522
2535
2502
2505
2526
2527
2512
2481
2498
2418
2442
2468
2470
2487
2516
2538
2485
2509
2512
2540
2524
2544
2496
2502
2462
2465
2467
2466
2464
2487
2487
2504
2506
2512
2487
2548
2513
2516
2517
2517
2476
2445
2473
2471
2451
2461
2475
2468
2466
2469
2474
2495
2507
2520
2509
2519
2517
2508
2469
2449
2431
2450
2475
2478
2492
2490
2490
2485
2479
2507
2506
2503
2509
2502
2487
2485
2471
2500
2501
2496
2499
2491
2487
2487
2510
2555
2543
2512
2524
2504
2541
2515
2491
2447
2426
2441
2480
2484
2497
2490
2445
2489
2499
2546
2528
2556
2512
2535
2506
2478
2434
2430
2470
2478
2460
2467
2468
2464
2480
2521
2477
2482
2481
2472
2448
2478
2477
2522
2485
2492
2493
2498
2489
2505
2516
2462
2491
2490
2507
2543
2515
2497
2457
2435
2468
2458
2498
2509
2508
2533
2488
2538
2488
2499
2536
2532
2514
2484
2511
2477
2477
2476
2488
2486
2487
2475
2497
2514
2510
2538
2501
2524
2516
2504
2507
2489
2460
2486
2484
2491
2493
2489
2475
2467
2504
2510
2537
2518
2521
2525
2531
2506
2489
2454
2436
2441
2472
2485
2483
2495
2477
2466
2489
2513
2488
2504
2481
2481
2472
2450
2460
2424
2439
2517
2509
2520
2513
2500
2521
2524
2526
2530
2517
2528
2519
2530
2462
2489
2442
2488
2498
2482
2495
2515
2471
2509
2532
2550
2522
2524
2509
2504
2503
2507
2467
2437
2487
2504
2504
2513
2534
2479
2494
2527
2502
2539
2511
2513
2448
2465
2448
2475
2463
2488
2463
2483
2478
2479
2488
2509
2537
2499
2509
2525
2493
2518
2496
2483
2454
2380
2472
2475
2492
2512
2509
2533
2516
2564
2525
2535
2529
2485
2504
2516
2501
2455
2436
2464
2479
2515
2530
2499
2507
2489
2493
2506
2508
2507
2493
2540
2471
2461
2465
2474
2486
2493
2501
2502
2487
2508
2546
2545
2538
2544
2520
2521
2496
2488
2469
2432
2448
2476
2472
2481
2508
2482
2469
2506
2495
2491
2490
2505
2459
2490
2487
2507
2459
2454
2479
2505
2485
2499
2526
2526
2557
2572
2535
2515
2506
2501
2482
2488
2425
2421
2471
2493
2499
2499
2525
2536
2530
2475
2502
2520
2512
2508
2498
2484
2471
2440
2434
2508
2477
2504
2501
2490
2464
2485
2543
2522
2508
2488
2492
2482
2482
2456
2451
2484
2507
2489
2492
2482
2474
2502
2497
2530
2513
2525
2520
2488
2487
2484
2482
2452
2457
2505
2503
2510
2479
2502
2531
2512
2516
2523
2503
2495
2439
2485
2452
2495
2529
2479
2477
2498
2491
2486
2496
2520
2538
2514
2517
2497
2502
2482
2493
2485
2427
2438
2472
2485
2497
2509
2531
2512
2516
2500
2520
2522
2506
2497
2487
2462
2467
2482
2476
2464
2476
2490
2501
2517
2532
2533
2521
2519
2492
2490
2521
2501
2502
2494
2489
2433
2459
2472
2486
2484
2469
2500
2480
2498
2519
2527
2516
2511
2494
2473
2453
2464
2476
2473
2492
2519
2495
2482
2511
2554
2537
2526
2520
2505
2490
2498
2474
2461
2499
2470
2457
2492
2501
2492
2521
2498
2452
2556
2525
2521
2462
2480
2454
2477
2492
2485
2463
2474
2475
2480
2506
2488
2482
2517
2517
2528
2531
2523
2515
2520
2502
2429
2446
2467
2499
2487
2483
2520
2509
2521
2553
2527
2531
2518
2521
2507
2507
2472
2490
2487
2475
2486
2480
2486
2488
2496
2525
2505
2531
2523
2504
2489
2472
2429
2426
2423
2490
2486
2491
2481
2482
2462
2504
2524
2528
2508
2506
2500
2479
2447
2463
2448
2487
2487
2479
2492
2578
2512
2507
2513
2580
2558
2526
2520
2471
2486
2464
2463
2503
2450
2480
2492
2479
2505
2483
2503
2494
2528
2529
2527
2519
2506
2495
2465
2467
2461
2463
2464
2499
2494
2504
2505
2534
2508
2546
2529
2529
2513
2500
2499
2471
2469
2492
2477
2444
2444
2479
2504
2480
2488
2503
2472
2472
2521
2511
2511
2493
2478
2435
2450
2443
2471
2493
2480
2478
2480
2501
2542
2526
2522
2510
2497
2485
2496
2475
2457
2454
2448
2481
2483
2491
2468
2474
2507
2549
2541
2512
2545
2515
2490
2478
2498
2444
2494
2479
2501
2490
2489
2510
2488
2491
2466
2519
2501
2511
2477
2471
2426
2400
2416
2432
2434
2490
2498
2489
2495
2493
2534
2540
2538
2542
2550
2536
2533
2501
2477
2428
2443
2480
2484
2499
2502
2482
2469
2499
2544
2534
2527
2519
2468
2482
2494
2465
2485
2471
2491
2491
2489
2474
2488
2499
2504
2465
2518
2483
2492
2518
2492
2496
2457
2464
2472
2506
2501
2498
2501
2478
2492
2482
2520
2513
2492
2497
2497
2440
2462
2419
2445
2454
2493
2483
2496
2501
2490
2471
2493
2543
2531
2513
2508
2492
2481
2503
2511
2479
2472
2499
2482
2502
2499
2508
2523
2493
2498
2521
2525
2505
2518
2517
2483
2446
2443
2465
2488
2471
2490
2534
2495
2487
2475
2519
2522
2503
2482
2456
2434
2436
2403
2490
2477
2490
2500
2533
2500
2491
2514
2573
2537
2539
2482
2514
2489
2459
2474
2460
2487
2467
2462
2471
2526
2506
2469
2454
2519
2528
2527
2526
2518
2510
2479
2490
2460
2469
2470
2485
2494
2491
2528
2525
2551
2556
2533
2509
2523
2495
2487
2479
2492
2479
2461
2488
2479
2501
2505
2495
2514
2526
2529
2535
2526
2520
2501
2478
2449
2453
2401
2433
2474
2501
2507
2504
2512
2538
2516
2526
2536
2537
2549
2516
2491
2474
2430
2440
2479
2482
2484
2486
2477
2486
2506
2518
2523
2516
2490
2523
2475
2471
2525
2493
2477
2514
2512
2515
2475
2527
2508
2542
2524
2551
2530
2525
2514
2484
2474
2486
2446
2464
2471
2489
2489
2502
2458
2511
2501
2494
2541
2507
2509
2518
2486
2477
2456
2475
2498
2469
2487
2491
2461
2495
2512
2536
2485
2522
2512
2514
2476
2469
2476
2476
2473
2513
2517
2499
2493
2465
2523
2521
2523
2529
2532
2508
2512
2489
2468
2453
2407
2428
2447
2466
2468
2469
2485
2469
2490
2527
2520
2527
2518
2515
2535
2484
2468
2470
2488
2490
2505
2521
2490
2480
2497
2545
2552
2504
2475
2477
2444
2463
2445
2472
2486
2477
2489
2491
2501
2467
2511
2541
2531
2591
2553
2535
2544
2497
2480
2487
2469
2490
2465
2480
2448
2494
2489
2478
2527
2496
2534
2499
2513
2496
2479
2475
2466
2467
2451
2508
2521
2506
2507
2520
2541
2548
2474
2494
2497
2528
2510
2480
2473
2470
2443
2462
2466
2447
2489
2468
2428
2445
2472
2520
2528
2512
2511
2504
2472
2462
2499
2508
2485
2491
2510
2504
2497
2514
2513
2493
2484
2515
2512
2513
2514
2480
2491
2468
2448
2464
2464
2503
2470
2547
2492
2492
2503
2482
2518
2504
2484
2505
2484
2448
2437
2479
2487
2502
2481
2515
2499
2492
2520
2522
2517
2520
2507
2529
2531
2499
2488
2474
2484
2481
2460
2478
2491
2487
2467
2482
2520
2513
2512
2506
2502
2468
2490
2496
2491
2465
2513
2474
2486
2504
2480
2504
2507
2502
2533
2505
2534
2530
2515
2509
2476
2423
2459
2489
2490
2485
2488
2465
2491
2535
2545
2537
2526
2521
2531
2495
2485
2477
2449
2460
2481
2470
2468
2510
2489
2495
2524
2501
2529
2515
2500
2473
2457
2471
2464
2481
2468
2497
2499
2491
2488
2493
2547
2562
2543
2525
2523
2515
2503
2522
2469
2452
2428
2440
2481
2484
2487
2507
2492
2463
2455
2519
2556
2513
2511
2492
2470
2475
2494
2459
2535
2494
2509
2505
2497
2491
2543
2524
2546
2542
2510
2488
2530
2506
2476
2447
2426
2467
2492
2493
2484
2507
2512
2490
2483
2540
2540
2508
2469
2497
2483
2520
2476
2483
2486
2491
2496
2483
2505
2484
2531
2545
2514
2517
2495
2481
2484
2487
2466
2448
2471
2486
2495
2496
2500
2499
2481
2535
2566
2524
2536
2507
2468
2465
2484
2450
2455
2423
2456
2485
2501
2523
2513
2507
2497
2530
2515
2521
2525
2482
2491
2472
2455
2442
2463
2491
2514
2512
2536
2484
2520
2497
2516
2525
2526
2522
2512
2473
2473
2455
2465
2488
2485
2491
2488
2524
2527
2463
2497
2511
2540
2535
2526
2483
2464
2492
2469
2452
2457
2492
2486
2479
2529
2521
2531
2514
2527
2516
2522
2522
2520
2490
2455
2436
2489
2510
2490
2497
2475
2481
2500
2561
2560
2550
2510
2513
2480
2512
2495
2451
2438
2454
2498
2494
2496
2505
2488
2467
2501
2547
2532
2527
2502
2480
2477
2460
2430
2488
2467
2474
2515
2472
2555
2506
2512
2527
2532
2515
2508
2539
2505
2471
2472
2482
2499
2502
2473
2496
2518
2489
2503
2520
2534
2545
2532
2522
2492
2514
2514
2498
2468
2433
2409
2496
2497
2509
2511
2502
2510
2511
2554
2538
2524
2526
2514
2470
2458
2476
2459
2469
2483
2496
2502
2507
2525
2530
2498
2504
2571
2526
2504
2516
2477
2446
2426
2444
2486
2469
2536
2514
2542
2480
2499
2478
2465
2530
2533
2547
2527
2498
2493
2495
2503
2493
2488
2502
2531
2468
2474
2497
2529
2515
2525
2527
2510
2493
2488
2484
2490
2487
2480
2483
2488
2500
2502
2482
2521
2529
2537
2527
2534
2528
2533
2472
2484
2462
2486
2496
2503
2518
2477
2525
2494
2531
2507
2548
2525
2522
2477
2456
2466
2483
2477
2485
2490
2515
2467
2489
2503
2562
2555
2487
2536
2518
2510
2521
2483
2443
2431
2468
2495
2486
2488
2495
2492
2497
2506
2549
2533
2520
2557
2487
2470
2474
2455
2456
2437
2486
2490
2499
2485
2529
2497
2511
2526
2540
2529
2513
2522
2491
2471
2422
2473
2472
2515
2513
2497
2514
2476
2513
2491
2537
2527
2538
2527
2539
2499
2455
2462
2515
2484
2487
2486
2485
2462
2495
2507
2542
2551
2506
2515
2512
2489
2497
2525
2495
2464
2487
2505
2504
2524
2515
2518
2508
2529
2541
2537
2529
2514
2478
2477
2463
2478
2478
2484
2491
2527
2510
2508
2533
2564
2553
2508
2515
2519
2500
2521
2504
2462
2449
2476
2489
2503
2497
2500
2470
2459
2489
2553
2538
2517
2515
2522
2499
2484
2438
2488
2443
2474
2484
2499
2475
2498
2539
2526
2539
2527
2529
2529
2509
2478
2476
2468
2465
2475
2493
2497
2502
2478
2506
2522
2490
2481
2522
2482
2505
2497
2487
2465
2468
2475
2521
2483
2502
2508
2485
2485
2503
2548
2571
2546
2534
2518
2515
2483
2491
2497
2453
2486
2489
2505
2483
2488
2504
2543
2555
2541
2526
2522
2496
2525
2491
2476
2497
2479
2475
2511
2493
2520
2532
2498
2533
2524
2516
2516
2496
2494
2482
2448
2488
2453
2439
2479
2470
2506
2519
2495
2471
2455
2537
2527
2516
2526
2532
2519
2466
2445
2488
2499
2513
2512
2515
2501
2550
2526
2542
2539
2522
2513
2528
2500
2505
2495
2478
2492
2504
2475
2443
2495
2535
2527
2535
2523
2513
2516
2534
2532
2511
2480
2468
2461
2507
2491
2483
2505
2467
2494
2491
2520
2502
2479
2478
2474
2498
2481
2471
2486
2502
2474
2499
2493
2460
2486
2505
2541
2496
2538
2518
2525
2512
2504
2475
2466
2452
2430
2498
2500
2479
2508
2509
2474
2560
2577
2556
2541
2548
2533
2493
2504
2540
2483
2513
2496
2514
2505
2510
2526
2491
2532
2545
2534
2528
2524
2514
2493
2483
2457
2490
2518
2507
2488
2493
2488
2503
2492
2518
2557
2534
2542
2512
2514
2544
2514
2442
2443
2477
2473
2461
2571
2494
2486
2503
2495
2570
2503
2554
2567
2512
2534
2496
2477
2444
2464
2488
2495
2502
2497
2482
2517
2582
2569
2521
2540
2517
2522
2506
2478
2497
2459
2483
2485
2524
2508
2520
2513
2507
2502
2521
2514
2521
2521
2484
2482
2500
2465
2515
2480
2479
2492
2501
2491
2511
2542
2532
2526
2544
2535
2521
2503
2502
2468
2438
2433
2507
2494
2511
2510
2525
2510
2511
2504
2578
2531
2532
2521
2498
2518
2468
2435
2472
2480
2486
2481
2444
2467
2496
2544
2541
2533
2531
2512
2472
2457
2533
2461
2457
2481
2494
2505
2496
2481
2497
2514
2483
2496
2533
2541
2514
2518
2508
2505
2488
2458
2477
2478
2502
2499
2482
2507
2530
2552
2541
2530
2524
2523
2487
2479
2485
2501
2479
2472
2477
2488
2502
2509
2516
2526
2563
2548
2537
2537
2516
2515
2503
2455
2363
2475
2471
2484
2487
2483
2461
2479
2535
2537
2545
2562
2522
2495
2478
2448
2454
2469
2481
2487
2510
2505
2530
2489
2490
2481
2510
2540
2526
2546
2524
2549
2479
2479
2463
2489
2487
2496
2459
2493
2505
2490
2488
2519
2543
2540
2538
2519
2473
2474
2456
2477
2538
2483
2488
2501
2483
2500
2520
2521
2539
2518
2512
2524
2502
2501
2470
2455
2448
2476
2470
2499
2513
2478
2492
2529
2533
2532
2538
2534
2532
2524
2510
2497
2492
2472
2487
2476
2496
2462
2518
2539
2522
2473
2525
2534
2511
2509
2517
2492
2480
2455
2471
2485
2509
2524
2472
2497
2516
2537
2568
2533
2525
2529
2496
2500
2484
2465
2457
2469
2476
2498
2536
2482
2507
2518
2532
2488
2516
2495
2527
2539
2508
2474
2437
2423
2459
2489
2478
2475
2512
2510
2504
2484
2490
2521
2533
2501
2539
2504
2496
2492
2466
2497
2508
2501
2480
2500
2493
2493
2528
2535
2545
2544
2518
2495
2484
2503
2491
2516
2492
2486
2505
2513
2490
2522
2525
2546
2523
2537
2528
2521
2498
2486
2478
2476
2484
2431
2484
2489
2518
2498
2511
2473
2485
2540
2507
2516
2503
2487
2484
2467
2418
2478
2495
2495
2509
2515
2500
2516
2527
2544
2518
2524
2507
2516
2478
2496
2454
2510
2509
2499
2503
2536
2479
2504
2535
2597
2555
2536
2549
2524
2535
2498
2499
2469
2506
2472
2491
2490
2524
2495
2519
2523
2555
2556
2529
2538
2487
2530
2529
2486
2476
2437
2472
2468
2494
2497
2510
2503
2509
2524
2515
2509
2505
2503
2663
2682
2646
2652
2664
2675
2683
2617
2612
2624
2676
2631
2593
2678
2679
2721
2644
2661
2663
2601
2551
2487
2611
2726
2689
2648
2629
2699
2697
2627
2539
2536
2626
2640
2695
2717
2642
2608
2685
2606
2595
2577
2567
2647
2700
2659
2649
2631
2685
2721
2653
2637
2578
2601
2717
2676
2692
2667
2675
2687
2766
2653
2612
2570
2629
2678
2676
2728
2694
2645
2552
2586
2620
2615
2619
2598
2694
2652
2709
2698
2686
2668
2853
2665
2672
2687
2631
2658
2580
2609
2684
2625
2594
2508
2574
2641
2721
2700
2699
2656
2750
2818
2737
2634
2608
2528
2517
2564
2784
2569
2639
2611
2644
2643
2616
2650
2688
2705
2766
2713
2715
2678
2675
2669
2673
2695
2682
2652
2673
2618
2603
2628
2699
2731
2692
2625
2682
2646
2703
2636
2627
2568
2587
2704
2703
2691
2693
2719
2693
2663
2649
2651
2685
2684
2649
2666
2638
2633
2654
2648
2617
2656
2660
2638
2656
2641
2653
2630
2656
2679
2668
2689
2784
2740
2632
2569
2583
2647
2659
2631
2601
2614
2593
2623
2724
2697
2679
2684
2701
2658
2588
2602
2642
2656
2607
2551
2530
2387
2580
2637
2784
2746
2689
2673
2663
2709
2712
2753
2732
2662
2581
2583
2619
2687
2646
2667
2710
2707
2670
2612
2668
2663
2672
2695
2657
2600
2652
2577
2684
2694
2695
2677
2687
2673
2702
2727
2653
2634
2625
2629
2686
2697
2692
2694
2665
2652
2669
2658
2627
2636
2608
2694
2692
2713
2673
2637
2648
2625
2657
2620
2565
2572
2623
2637
2571
2655
2740
2724
2706
2656
2661
2705
2740
2712
2688
2667
2574
2578
2603
2573
2584
2668
2697
2761
2758
2697
2689
2660
2654
2618
2663
2654
2658
2678
2663
2661
2618
2574
2597
2674
2642
2716
2770
2725
2679
2619
2653
2647
2591
2640
2635
2689
2629
2645
2724
2689
2661
2663
2665
2638
2636
2652
2656
2662
2665
2640
2621
2630
2631
2649
2629
2712
2688
2609
2605
2639
2668
2619
2644
2738
2653
2608
2655
2679
2675
2673
2727
2716
2648
2600
2695
2711
2656
2699
2663
2685
2631
2662
2684
2677
2688
2661
2657
2651
2644
2642
2629
2610
2644
2620
2631
2631
2673
2696
2710
2694
2671
2623
2588
2626
2677
2649
2665
2660
2684
2679
2701
2661
2725
2706
2683
2702
2619
2570
2535
2638
2690
2657
2587
2641
2647
2706
2672
2683
2723
2676
2655
2647
2656
2650
2699
2709
2640
2692
2674
2648
2614
2593
2586
2524
2581
2610
2702
2698
2685
2666
2696
2663
2710
2665
2644
2713
2677
2658
2578
2588
2625
2727
2756
2714
2637
2700
2622
2598
2573
2636
2601
2644
2625
2664
2662
2699
2706
2730
2677
2618
2613
2633
2663
2687
2751
2708
2694
2700
2669
2697
2634
2643
2651
2660
2667
2665
2632
2672
2686
2679
2683
2587
2608
2651
2673
2716
2687
2633
2658
2630
2604
2604
2734
2746
2672
2672
2612
2659
2595
2645
2617
2630
2684
2667
2687
2692
2695
2671
2666
2658
2672
2672
2657
2602
2654
2637
2651
2576
2648
2706
2686
2703
2683
2700
2752
2753
2659
2636
2683
2680
2661
2660
2649
2605
2629
2649
2669
2677
2694
2686
2672
2650
2699
2688
2682
2618
2586
2701
2678
2660
2673
2653
2659
2684
2638
2647
2705
2711
2587
2642
2636
2657
2577
2643
2653
2664
2650
2683
2675
2654
2575
2582
2512
2538
2640
2679
2730
2670
2606
2574
2707
2828
2690
2656
2654
2721
2712
2614
2688
2724
2713
2657
2669
2667
2666
2709
2694
2706
2674
2682
2667
2650
2714
2669
2625
2636
2648
2645
2617
2677
2625
2639
2628
2609
2630
2648
2659
2613
2671
2681
2648
2716
2725
2639
2655
2658
2688
2696
2736
2677
2668
2676
2662
2702
2734
2663
2662
2677
2693
2677
2685
2652
2578
2661
2693
2741
2703
2641
2695
2764
2711
2583
2641
2666
2611
2615
2599
2618
2675
2637
2637
2653
2668
2691
2696
2675
2661
2656
2668
2637
2695
2703
2682
2648
2652
2678
2651
2640
2673
2689
2731
2624
2643
2673
2673
2642
2707
2682
2705
2665
2613
2727
2721
2703
2660
2625
2620
2661
2663
2689
2663
2664
2682
2617
2589
2648
2660
2637
2662
2619
2645
2711
2681
2639
2608
2632
2657
2635
2636
2605
2638
2674
2639
2636
2637
2659
2674
2719
2700
2677
2782
2728
2689
2662
2709
2623
2654
2647
2713
2703
2687
2667
2665
2714
2700
2633
2694
2650
2643
2610
2660
2583
2588
2628
2669
2689
2695
2706
2700
2592
2624
2729
2714
2674
2652
2662
2675
2605
2615
2610
2638
2624
2720
2722
2701
2714
2619
2649
2650
2676
2635
2535
2613
2668
2689
2650
2679
2682
2732
2686
2618
2584
2779
2731
2692
2728
2675
2682
2679
2676
2636
2557
2675
2653
2709
2696
2639
2658
2719
2692
2687
2602
2655
2662
2673
2684
2680
2666
2663
2652
2638
2686
2626
2639
2670
2686
2705
2725
2679
2675
2637
2632
2684
2671
2644
2623
2709
2682
2679
2636
2663
2646
2674
2660
2611
2660
2720
2669
2620
2563
2643
2710
2704
2596
2662
2654
2610
2633
2691
2705
2735
2712
2680
2716
2718
2688
2637
2644
2644
2677
2666
2671
2672
2695
2669
2627
2655
2652
2680
2649
2664
2691
2689
2641
2625
2649
2642
2619
2615
2637
2695
2704
2663
2608
2676
2706
2684
2682
2643
2638
2702
2690
2696
2642
2644
2618
2615
2640
2618
2633
2641
2644
2635
2637
2640
2666
2596
2647
2658
2675
2641
2652
2676
2693
2651
2705
2690
2727
2734
2767
2741
2693
2632
2679
2681
2659
2648
2706
2678
2664
2714
2705
2661
2689
2669
2662
2673
2638
2652
2656
2658
2664
2656
2674
2661
2668
2648
2667
2687
2645
2667
2710
2663
2658
2654
2637
2657
2617
2580
2562
2591
2656
2632
2655
2654
2678
2728
2709
2756
2791
2682
2622
2600
2565
2590
2633
2691
2691
2701
2701
2715
2696
2658
2638
2627
2602
2706
2693
2692
2666
2667
2699
2674
2593
2639
2646
2630
2611
2565
2591
2748
2923
2737
2660
2719
2729
2729
2679
2718
2679
2635
2615
2614
2696
2699
2668
2692
2639
2610
2704
2690
2677
2706
2644
2669
2617
2598
2652
2664
2648
2564
2671
2660
2711
2690
2673
2615
2641
2732
2773
2629
2606
2535
2515
2601
2597
2592
2619
2680
2618
2664
2718
2719
2664
2676
2674
2718
2767
2718
2686
2633
2651
2638
2702
2747
2687
2647
2695
2643
2643
2632
2644
2636
2621
2589
2635
2629
2615
2670
2646
2715
2735
2695
2667
2635
2742
2709
2705
2730
2687
2681
2681
2668
2667
2619
2633
2621
2640
2646
2680
2696
2664
2620
2686
2635
2755
2729
2654
2652
2612
2600
2670
2661
2701
2709
2662
2636
2634
2639
2640
2626
2566
2595
2623
2639
2658
2636
2601
2561
2604
2628
2698
2695
2672
2669
2785
2777
2711
2681
2679
2730
2730
2705
2661
2664
2669
2676
2697
2706
2672
2667
2659
2665
2665
2666
2676
2669
2674
2664
2679
2636
2645
2687
2663
2634
2640
2630
2659
2660
2663
2675
2715
2652
2712
2731
2704
2646
2661
2620
2616
2678
2698
2703
2693
2704
2686
2718
2711
2707
2631
2648
2635
2636
2591
2598
2613
2664
2599
2655
2650
2664
2685
2671
2658
2685
2638
2640
2662
2697
2662
2642
2671
2664
2659
2600
2600
2711
2714
2736
2640
2717
2755
2759
2721
2707
2667
2690
2665
2655
2687
2664
2680
2685
2673
2628
2618
2665
2636
2705
2703
2715
2695
2714
2681
2655
2636
2658
2655
2628
2661
2662
2661
2621
2583
2657
2627
2658
2670
2680
2692
2697
2691
2625
2709
2667
2655
2684
2712
2699
2685
2696
2669
2714
2674
2611
2668
2721
2646
2658
2644
2596
2618
2604
2674
2701
2700
2749
2764
2663
2671
2663
2647
2605
2595
2561
2563
2656
2700
2644
2666
2708
2758
2747
2725
2642
2661
2661
2642
2700
2691
2667
2650
2641
2663
2669
2719
2723
2746
2672
2636
2655
2658
2641
2678
2694
2638
2681
2735
2710
2668
2680
2697
2645
2652
2677
2697
2728
2704
2756
2751
2709
2656
2636
2603
2581
2620
2588
2625
2651
2601
2695
2703
2707
2642
2636
2687
2697
2684
2668
2667
2642
2615
2701
2649
2644
2678
2660
2687
2635
2640
2628
2677
2668
2685
2687
2651
2639
2615
2701
2601
2694
2713
2672
2626
2692
2693
2697
2698
2753
2705
2693
2678
2683
2611
2567
2549
2580
2580
2581
2678
2680
2710
2732
2708
2684
2689
2706
2715
2706
2697
2661
2672
2692
2629
2683
2585
2621
2684
2695
2639
2644
2694
2677
2763
2713
2689
2666
2675
2659
2617
2574
2668
2644
2650
2641
2611
2664
2669
2557
2667
2625
2627
2659
2698
2721
2669
2597
2553
2617
2580
2610
2690
2717
2738
2620
2694
2741
2709
2709
2714
2667
2702
2622
2616
2637
2648
2652
2627
2669
2719
2703
2670
2660
2645
2645
2664
2653
2747
2671
2723
2692
2629
2663
2674
2676
2725
2671
2710
2679
2682
2700
2731
2712
2697
2619
2607
2640
2667
2645
2620
2687
2709
2656
2682
2658
2699
2660
2619
2625
2659
2673
2630
2599
2566
2630
2662
2612
2643
2700
2706
2629
2689
2767
2735
2681
2708
2661
2654
2677
2644
2659
2678
2611
2631
2652
2659
2684
2735
2713
2705
2701
2654
2654
2680
2642
2701
2720
2630
2651
2614
2681
2688
2689
2707
2691
2669
2644
2669
2695
2686
2664
2628
2636
2677
2653
2644
2654
2677
2703
2743
2719
2650
2615
2669
2696
2663
2660
2642
2653
2657
2628
2644
2594
2618
2540
2585
2618
2708
2725
2710
2711
2715
2701
2697
2668
2645
2652
2685
2638
2711
2696
2684
2662
2663
2683
2711
2673
2694
2717
2657
2622
2648
2653
2595
2648
2760
2739
2671
2641
2712
2760
2723
2656
2680
2666
2661
2699
2692
2688
2642
2676
2664
2719
2684
2703
2699
2637
2647
2687
2670
2680
2690
2687
2693
2689
2681
2645
2666
2725
2680
2650
2673
2694
2669
2648
2630
2624
2656
2696
2689
2681
2666
2665
2621
2601
2598
2641
2621
2632
2668
2693
2644
2582
2576
2695
2755
2678
2674
2691
2745
2733
2671
2657
2631
2653
2642
2625
2673
2650
2650
2608
2667
2665
2724
2744
2699
2663
2647
2624
2683
2702
2695
2680
2640
2631
2628
2648
2715
2670
2714
2709
2673
2670
2632
2680
2669
2629
2646
2723
2640
2681
2687
2686
2642
2687
2683
2700
2692
2659
2673
2654
2602
2610
2644
2652
2651
2734
2708
2686
2684
2633
2606
2630
2627
2628
2597
2641
2598
2559
2636
2664
2690
2735
2723
2705
2740
2727
2727
2708
2650
2668
2644
2646
2628
2640
2712
2718
2680
2682
2666
2695
2681
2672
2670
2654
2670
2733
2717
2691
2627
2628
2630
2673
2680
2668
2692
2665
2678
2677
2655
2672
2702
2720
2696
2664
2651
2625
2589
2605
2628
2688
2708
2710
2706
2659
2715
2670
2653
2703
2699
2698
2683
2664
2576
2595
2565
2600
2636
2628
2631
2642
2630
2761
2711
2678
2624
2665
2679
2630
2607
2613
2623
2717
2609
2516
2624
2695
2702
2639
2636
2667
2755
2719
2676
2635
2752
2758
2731
2680
2705
2681
2686
2624
2640
2678
2685
2719
2671
2712
2692
2687
2634
2599
2703
2662
2558
2544
2645
2723
2710
2755
2671
2687
2719
2717
2620
2635
2738
2719
2644
2655
2706
2723
2732
2639
2629
2648
2575
2620
2671
2668
2717
2619
2700
2741
2717
2726
2665
2680
2622
2663
2664
2659
2660
2685
2739
2651
2618
2691
2648
2634
2645
2732
2687
2642
2666
2625
2611
2637
2591
2681
2737
2719
2659
2640
2702
2684
2715
2675
2708
2706
2671
2633
2670
2683
2667
2686
2650
2635
2621
2593
2681
2679
2666
2622
2642
2727
2669
2696
2665
2674
2740
2686
2690
2693
2662
2674
2693
2696
2695
2723
2701
2662
2713
2654
2616
2606
2570
2665
2517
2642
2702
2742
2718
2637
2614
2690
2667
2641
2661
2694
2695
2668
2641
2690
2706
2602
2635
2653
2655
2695
2726
2712
2764
2709
2695
2645
2648
2663
2651
2642
2614
2642
2644
2670
2637
2652
2620
2674
2669
2662
2674
2719
2690
2656
2665
2636
2661
2662
2662
2641
2659
2653
2702
2721
2683
2662
2636
2581
2647
2657
2659
2695
2695
2613
2599
2657
2676
2647
2665
2650
2655
2654
2657
2752
2704
2738
2762
2718
2705
2682
2679
2581
2643
2680
2723
2709
2615
2639
2650
2688
2708
2689
2694
2671
2636
2655
2629
2670
2683
2704
2675
2713
2689
2667
2679
2639
2693
2680
2682
2688
2660
2662
2665
2657
2697
2640
2666
2649
2640
2614
2639
2660
2628
2611
2630
2648
2639
2656
2731
2706
2663
2666
2633
2597
2534
2668
2738
2592
2657
2666
2684
2714
2718
2710
2657
2666
2667
2672
2745
2644
2655
2636
2621
2626
2622
2729
2731
2688
2678
2682
2651
2669
2704
2619
2594
2670
2696
2667
2623
2640
2655
2670
2721
2726
2727
2707
2689
2699
2673
2678
2715
2671
2693
2651
2673
2681
2665
2683
2671
2636
2621
2609
2687
2713
2701
2578
2613
2670
2723
2654
2652
2675
2682
2683
2617
2642
2631
2651
2693
2683
2642
2603
2676
2738
2748
2652
2616
2632
2599
2606
2652
2662
2664
2664
2733
2711
2699
2706
2673
2691
2638
2682
2564
2591
2584
2655
2663
2707
2704
2693
2686
2669
2675
2676
2702
2718
2679
2632
2670
2617
2581
2617
2667
2715
2719
2688
2660
2674
2668
2681
2711
2716
2706
2702
2669
2645
2672
2667
2676
2674
2684
2659
2649
2612
2656
2705
2689
2658
2631
2654
2620
2694
2644
2683
2669
2677
2663
2628
2668
2635
2590
2657
2702
2718
2693
2641
2665
2638
2580
2570
2660
2610
2678
2730
2672
2648
2692
2768
2721
2766
2702
2690
2621
2602
2643
2775
2627
2631
2690
2660
2647
2653
2653
2663
2720
2700
2705
2743
2724
2696
2674
2644
2720
2684
2662
2683
2686
2654
2643
2647
2663
2663
2709
2631
2595
2646
2647
2641
2610
2587
2658
2669
2673
2697
2697
2675
2667
2670
2634
2672
2716
2756
2678
2637
2630
2664
2596
2634
2665
2674
2692
2692
2702
2643
2670
2680
2674
2682
2742
2722
2653
2638
2635
2577
2631
2669
2622
2536
2652
2660
2735
2672
2699
2711
2666
2661
2650
2693
2726
2650
2665
2648
2662
2642
2707
2652
2679
2635
2661
2658
2682
2699
2634
2657
2679
2648
2618
2650
2679
2658
2668
2650
2693
2660
2648
2694
2675
2662
2671
2685
2661
2654
2672
2667
2656
2683
2744
2671
2671
2700
2705
2621
2626
2686
2663
2649
2632
2678
2688
2633
2613
2643
2744
2624
2573
2571
2619
2585
2595
2710
2723
2695
2674
2723
2651
2670
2671
2648
2637
2602
2601
2654
2654
2654
2653
2716
2728
2682
2672
2658
2657
2687
2666
2657
2655
2666
2651
2623
2714
2671
2686
2671
2624
2705
2701
2720
2672
2649
2621
2625
2622
2642
2640
2753
2718
2676
2657
2676
2696
2680
2643
2668
2719
2707
2642
2688
2681
2695
2650
2642
2690
2689
2618
2645
2682
2682
2629
2664
2692
2709
2707
2746
2659
2611
2610
2642
2666
2704
2677
2644
2613
2689
2698
2698
2655
2665
2684
2663
2597
2645
2654
2644
2591
2620
2680
2698
2651
2685
2708
2748
2721
2718
2719
2706
2701
2717
2678
2675
2667
2660
2649
2678
2667
2674
2649
2677
2656
2674
2649
2647
2655
2698
2685
2665
2649
2651
2641
2714
2710
2645
2643
2723
2706
2657
2675
2712
2662
2680
2699
2655
2654
2654
2641
2597
2589
2623
2641
2697
2685
2808
2678
2582
2595
2656
2637
2653
2657
2605
2560
2683
2679
2634
2676
2663
2716
2712
2692
2719
2670
2696
2624
2639
2676
2774
2603
2607
2651
2667
2684
2700
2690
2671
2732
2661
2662
2643
2673
2670
2707
2700
2646
2635
2610
2598
2638
2648
2636
2672
2657
2684
2674
2752
2711
2701
2694
2709
2645
2649
2657
2655
2705
2672
2679
2641
2628
2628
2668
2636
2654
2624
2690
2671
2593
2592
2657
2593
2622
2532
2652
2593
2582
2667
2728
2692
2718
2734
2718
2675
2653
2695
2672
2679
2672
2595
2672
2712
2673
2729
2739
2680
2660
2702
2702
2681
2700
2685
2693
2669
2687
2665
2686
2657
2683
2681
2684
2638
2652
2727
2679
2709
2658
2681
2610
2583
2596
2664
2714
2740
2674
2662
2670
2629
2716
2773
2645
2637
2653
2642
2655
2617
2603
2598
2639
2658
2655
2750
2659
2689
2655
2690
2714
2735
2690
2672
2679
2684
2673
2666
2642
2677
2642
2648
2624
2663
2681
2669
2718
2690
2726
2700
2707
2716
2727
2671
2655
2628
2691
2569
2610
2649
2706
2651
2641
2672
2697
2682
2649
2668
2754
2712
2674
2678
2604
2622
2626
2636
2643
2659
2640
2705
2669
2711
2653
2665
2663
2647
2680
2652
2646
2638
2642
2621
2648
2592
2558
2569
2620
2742
2682
2652
2689
2599
2601
2661
2588
2634
2666
2678
2751
2720
2679
2695
2744
2677
2710
2732
2666
2595
2697
2699
2674
2643
2668
2673
2681
2695
2708
2696
2667
2686
2642
2687
2692
2666
2622
2674
2669
2666
2662
2607
2623
2594
2556
2659
2674
2661
2684
2687
2665
2686
2728
2735
2819
2690
2663
2622
2617
2616
2649
2626
2671
2635
2645
2657
2706
2712
2642
2616
2662
2759
2661
2546
2582
2609
2633
2671
2622
2634
2665
2666
2695
2716
2669
2667
2656
2636
2673
2692
2718
2691
2647
2580
2629
2682
2697
2781
2771
2590
2626
2688
2742
2623
2670
2717
2676
2653
2655
2660
2641
2662
2589
2573
2656
2765
2746
2742
2702
2648
2642
2672
2618
2646
2647
2657
2675
2715
2677
2576
2657
2668
2675
2695
2731
2683
2691
2693
2634
2592
2632
2599
2671
2656
2619
2702
2701
2597
2610
2639
2624
2679
2725
2692
2670
2648
2600
2725
2700
2680
2666
2634
2673
2674
2715
2722
2668
2658
2651
2659
2661
2688
2715
2648
2628
2627
2637
2670
2663
2663
2637
2682
2673
2616
2604
2629
2684
2728
2639
2538
2633
2710
2698
2657
2553
2616
2610
2565
2588
2710
2729
2597
2560
2614
2706
2712
2726
2725
2676
2594
2568
2684
2787
2779
2736
2728
2638
2579
2648
2672
2609
2580
2648
2721
2754
2797
2687
2655
2619
2658
2688
2738
2652
2676
2683
2633
2753
2731
2674
2685
2717
2690
2607
2598
2577
2687
2879
2691
2531
2559
2613
2650
2650
2640
2741
2715
2686
2734
2670
2649
2646
2688
2651
2629
2660
2620
2652
2593
2650
2636
2683
2667
2639
2634
2635
2588
2531
2558
2612
2632
2702
2648
2671
2643
2622
2656
2607
2649
2766
2671
2666
2710
2695
2705
2563
2728
2710
2637
2644
2671
2641
2592
2689
2717
2618
2601
2698
2709
2653
2659
2693
2711
2686
2598
2626
2704
2673
2631
2689
2697
2624
2753
2671
2609
2639
2588
2638
2688
2703
2621
2571
2655
2679
2683
2657
2609
2644
2631
2654
2676
2736
2697
2708
2677
2627
2606
2699
2634
2643
2589
2565
2644
2750
2716
2678
2645
2626
2669
2660
2655
2559
2545
2563
2721
2823
2616
2641
2753
2719
2781
2723
2639
2667
2727
2665
2608
2609
2707
2755
2740
2636
2615
2621
2597
2652
2667
2756
2722
2678
2661
2707
2597
2574
2558
2640
2656
2684
2667
2704
2685
2699
2689
2661
2714
2685
2710
2743
2629
2594
2609
2650
2677
2632
2591
2630
2649
2638
2627
2600
2634
2694
2702
2788
2735
2658
2651
2630
2678
2696
2638
2671
2668
2663
2663
2601
2617
2677
2669
2676
2686
2677
2663
2651
2656
2711
2619
2664
2634
2637
2692
2666
2627
2666
2610
2689
2689
2698
2662
2704
2648
2621
2599
2650
2576
2582
2651
2685
2679
2711
2727
2767
2714
2669
2682
2652
2650
2674
2671
2560
2619
2651
2605
2631
2763
2668
2681
2703
2655
2688
2638
2668
2612
2550
2557
2671
2692
2744
2686
2678
2667
2668
2584
2609
2687
2637
2674
2692
2693
2669
2647
2696
2689
2612
2635
2653
2670
2658
2621
2649
2600
2540
2566
2552
2664
2691
2715
2734
2647
2697
2684
2758
2687
2653
2666
2665
2688
2637
2675
2722
2723
2707
2747
2681
2673
2637
2635
2612
2598
2625
2627
2650
2644
2694
2663
2769
2680
2711
2705
2677
2646
2692
2683
2687
2606
2642
2665
2663
2643
2639
2625
2658
2669
2653
2666
2677
2670
2633
2624
2610
2650
2686
2623
2637
2644
2640
2706
2692
2730
2706
2717
2664
2671
2680
2655
2573
2572
2602
2676
2726
2687
2695
2692
2679
2653
2655
2704
2640
2678
2697
2681
2675
2692
2700
2701
2634
2688
2681
2645
2663
2649
2679
2642
2677
2657
2656
2637
2674
2613
2598
2636
2561
2556
2589
2616
2692
2740
2715
2671
2687
2679
2703
2784
2707
2668
2656
2624
2633
2635
2659
2608
2684
2667
2662
2678
2671
2692
2666
2674
2645
2708
2705
2658
2626
2597
2631
2690
2690
2718
2738
2672
2654
2679
2669
2669
2610
2679
2687
2637
2624
2638
2637
2678
2689
2673
2619
2620
2676
2649
2664
2687
2708
2662
2647
2653
2650
2704
2642
2579
2552
2764
2675
2613
2609
2702
2745
2720
2662
2663
2693
2669
2623
2625
2686
2654
2578
2568
2603
2585
2667
2627
2664
2725
2653
2647
2707
2718
2644
2566
2625
2958
2617
2626
2670
2674
2664
2669
2633
2611
2677
2722
2676
2680
2668
2660
2668
2714
2684
2629
2587
2686
2618
2667
2699
2711
2746
2833
2892
2749
2593
2575
2638
2687
2626
2641
2646
2631
2603
2613
2604
2602
2644
2671
2758
2744
2686
2638
2675
2698
2700
2646
2599
2626
2604
2653
2648
2623
2641
2728
2675
2672
2636
2659
2535
2635
2740
2755
2753
2672
2583
2636
2697
2701
2620
2647
2708
2733
2706
2678
2724
2799
2757
2641
2616
2689
2714
2669
2639
2636
2684
2715
2688
2684
2670
2651
2656
2690
2679
2630
2651
2613
2637
2632
2585
2589
2613
2558
2578
2641
2731
2648
2730
2744
2730
2721
2640
2598
2618
2642
2670
2666
2680
2642
2572
2547
2666
2709
2651
2650
2526
2547
2663
2736
2740
2697
2665
2708
2661
2648
2673
2704
2677
2724
2697
2721
2674
2670
2716
2689
2656
2608
2619
2529
2616
2640
2737
2725
2743
2695
2690
2676
2591
2632
2652
2655
2673
2682
2625
2701
2666
2595
2598
2645
2630
2621
2699
2756
2683
2622
2673
2779
2674
2667
2675
2655
2654
2559
2599
2646
2661
2648
2640
2597
2626
2595
2617
2687
2792
2749
2679
2709
2674
2657
2627
2612
2590
2580
2620
2588
2617
2807
2670
2658
2698
2758
2622
2549
2722
2643
2654
2660
2654
2616
2691
2696
2634
2598
2605
2665
2723
2702
2716
2670
2683
2737
2662
2657
2629
2629
2646
2662
2644
2748
2747
2630
2631
2633
2666
2664
2633
2656
2643
2628
2611
2628
2665
2661
2641
2592
2701
2744
2778
2754
2655
2738
2716
2677
2679
2617
2704
2661
2639
2646
2641
2587
2642
2706
2629
2660
2779
2677
2627
2603
2643
2656
2622
2606
2639
2664
2638
2667
2650
2636
2580
2704
2764
2785
2725
2697
2644
2645
2687
2699
2670
2620
2673
2624
2691
2681
2648
2647
2695
2724
2623
2684
2692
2686
2704
2697
2653
2627
2643
2648
2660
2656
2660
2629
2687
2752
2735
2719
2679
2680
2730
2661
2608
2560
2621
2664
2675
2636
2633
2676
2653
2609
2645
2649
2706
2685
2637
2643
2689
2637
2689
2622
2617
2635
2648
2670
2612
2630
2610
2628
2643
2702
2648
2655
2713
2671
2586
2650
2685
2716
2658
2675
2633
2613
2646
2693
2699
2679
2646
2673
2684
2700
2693
2687
2669
2665
2662
2629
2661
2676
2669
2703
2699
2579
2698
2656
2656
2652
2682
2674
2650
2642
2647
2693
2680
2678
2656
2632
2707
2719
2656
2673
2721
2686
2692
2645
2657
2772
2703
2638
2636
2632
2630
2652
2637
2657
2683
2704
2702
2706
2680
2674
2658
2602
2579
2606
2583
2581
2605
2629
2649
2705
2657
2623
2639
2718
2693
2716
2685
2701
2681
2658
2617
2605
2685
2700
2656
2711
2685
2696
2687
2679
2702
2632
2490
2507
2494
2481
2479
2497
2498
2476
2481
2450
2450
2419
2471
2469
2461
2471
2463
2426
2488
2463
2472
2481
2484
2480
2481
2446
2477
2445
2449
2442
2470
2473
2480
2443
2463
2491
2532
2518
2498
2509
2508
2485
2500
2470
2402
2426
2431
2459
2478
2477
2449
2485
2457
2444
2449
2488
2501
2500
2495
2488
2474
2476
2463
2484
2480
2488
2477
2470
2464
2458
2448
2452
2522
2517
2506
2497
2485
2473
2449
2454
2465
2478
2484
2461
2476
2507
2561
2502
2497
2507
2502
2497
2466
2459
2475
2445
2444
2472
2471
2465
2489
2453
2462
2487
2493
2473
2490
2504
2488
2440
2433
2426
2429
2431
2441
2460
2458
2426
2485
2478
2516
2517
2532
2501
2479
2504
2492
2468
2435
2404
2446
2479
2484
2502
2488
2459
2488
2472
2539
2507
2484
2495
2467
2432
2424
2468
2461
2475
2487
2500
2501
2465
2493
2500
2516
2515
2508
2513
2503
2522
2460
2448
2413
2421
2433
2473
2477
2481
2466
2440
2453
2481
2517
2510
2489
2484
2486
2482
2459
2471
2457
2445
2482
2478
2490
2487
2475
2424
2456
2500
2464
2450
2453
2458
2439
2416
2468
2438
2473
2484
2493
2477
2468
2497
2520
2548
2485
2495
2470
2492
2473
2436
2396
2449
2439
2458
2498
2471
2478
2464
2490
2523
2483
2506
2512
2487
2505
2495
2476
2410
2461
2481
2473
2482
2483
2457
2478
2478
2540
2502
2517
2477
2477
2469
2483
2468
2434
2410
2438
2466
2473
2494
2487
2459
2431
2501
2481
2477
2463
2465
2480
2458
2454
2441
2469
2461
2488
2488
2480
2498
2480
2515
2506
2523
2507
2482
2492
2483
2476
2459
2424
2430
2445
2466
2468
2454
2485
2483
2515
2545
2509
2503
2501
2470
2400
2477
2447
2425
2458
2467
2471
2476
2488
2464
2471
2522
2499
2515
2484
2499
2492
2478
2476
2485
2407
2431
2447
2465
2454
2489
2489
2493
2522
2491
2515
2511
2483
2502
2501
2449
2418
2421
2467
2485
2482
2487
2473
2464
2472
2508
2467
2479
2479
2486
2469
2470
2463
2478
2462
2463
2469
2468
2491
2508
2517
2467
2481
2483
2507
2501
2494
2468
2451
2438
2420
2444
2475
2475
2497
2467
2476
2488
2515
2489
2491
2510
2541
2450
2507
2482
2442
2414
2435
2478
2476
2449
2504
2461
2463
2480
2529
2488
2478
2463
2481
2458
2470
2484
2486
2458
2470
2486
2501
2488
2486
2489
2489
2494
2499
2485
2499
2450
2463
2486
2444
2468
2465
2478
2483
2486
2467
2479
2508
2503
2560
2511
2525
2507
2481
2462
2474
2469
2481
2474
2467
2475
2501
2473
2470
2491
2463
2480
2483
2493
2487
2459
2449
2418
2408
2428
2465
2476
2444
2413
2463
2508
2502
2486
2504
2500
2506
2466
2495
2453
2422
2451
2494
2481
2482
2485
2459
2477
2479
2517
2538
2502
2502
2489
2484
2493
2492
2503
2446
2471
2464
2489
2464
2474
2448
2521
2447
2473
2489
2486
2489
2467
2462
2482
2467
2483
2489
2467
2497
2495
2473
2495
2488
2503
2463
2520
2469
2459
2450
2436
2418
2436
2461
2465
2497
2574
2467
2469
2475
2481
2516
2490
2487
2465
2492
2446
2466
2478
2409
2461
2483
2497
2499
2497
2471
2465
2500
2524
2501
2492
2492
2484
2475
2448
2455
2474
2453
2484
2483
2475
2473
2493
2474
2473
2487
2494
2501
2491
2496
2484
2450
2446
2461
2475
2455
2472
2480
2468
2499
2491
2509
2514
2479
2485
2496
2518
2483
2455
2439
2490
2446
2471
2476
2467
2493
2478
2491
2476
2502
2491
2488
2483
2515
2459
2457
2436
2422
2455
2464
2483
2475
2456
2489
2517
2520
2516
2510
2510
2487
2495
2463
2446
2484
2441
2463
2469
2472
2432
2474
2493
2499
2500
2503
2498
2493
2486
2494
2476
2435
2426
2453
2474
2476
2472
2490
2480
2491
2463
2480
2466
2509
2490
2477
2496
2475
2465
2431
2469
2491
2476
2474
2479
2461
2457
2504
2475
2474
2485
2473
2466
2442
2447
2488
2458
2487
2453
2469
2465
2453
2478
2495
2478
2437
2489
2444
2510
2504
2487
2460
2446
2434
2485
2491
2491
2502
2480
2461
2494
2505
2517
2486
2492
2513
2473
2471
2452
2465
2466
2471
2480
2459
2465
2488
2478
2464
2518
2508
2486
2498
2484
2425
2510
2444
2500
2467
2466
2466
2484
2496
2486
2511
2464
2481
2504
2507
2479
2484
2484
2439
2436
2447
2435
2453
2449
2450
2434
2411
2470
2495
2496
2471
2492
2468
2440
2490
2476
2441
2503
2473
2499
2495
2502
2525
2499
2509
2516
2518
2497
2457
2491
2454
2488
2460
2412
2415
2421
2482
2496
2496
2482
2466
2485
2508
2489
2486
2515
2455
2481
2467
2427
2487
2458
2468
2460
2474
2490
2509
2481
2444
2473
2500
2474
2476
2495
2476
2451
2422
2421
2494
2473
2484
2485
2461
2513
2424
2507
2528
2484
2485
2476
2493
2493
2486
2445
2427
2412
2437
2461
2476
2457
2459
2480
2453
2494
2500
2498
2491
2501
2475
2465
2455
2470
2455
2489
2478
2522
2510
2470
2476
2489
2504
2502
2495
2500
2498
2463
2467
2452
2485
2466
2483
2473
2448
2478
2490
2498
2526
2518
2503
2436
2474
2489
2496
2482
2432
2409
2460
2484
2463
2456
2475
2529
2536
2527
2514
2510
2499
2477
2478
2467
2427
2453
2436
2454
2441
2471
2484
2487
2534
2509
2513
2496
2487
2484
2492
2497
2471
2435
2429
2427
2446
2449
2473
2479
2486
2501
2504
2511
2537
2510
2511
2503
2484
2453
2409
2462
2445
2438
2469
2457
2471
2492
2463
2460
2483
2505
2509
2514
2495
2517
2489
2449
2444
2462
2477
2488
2466
2490
2507
2488
2438
2490
2492
2468
2461
2470
2460
2459
2447
2463
2453
2475
2474
2467
2466
2466
2439
2458
2464
2472
2488
2472
2484
2478
2477
2434
2444
2493
2483
2492
2502
2486
2491
2504
2496
2479
2491
2496
2501
2495
2474
2455
2489
2494
2486
2490
2479
2484
2485
2463
2449
2468
2521
2498
2504
2508
2491
2463
2451
2473
2424
2484
2467
2396
2502
2494
2470
2443
2476
2522
2520
2497
2488
2477
2478
2460
2442
2485
2481
2464
2452
2460
2491
2512
2512
2500
2498
2487
2498
2471
2501
2489
2434
2441
2496
2487
2486
2485
2475
2482
2516
2508
2497
2507
2493
2488
2475
2444
2459
2430
2466
2462
2472
2482
2457
2488
2472
2501
2512
2511
2510
2493
2495
2494
2460
2435
2428
2468
2465
2457
2449
2487
2446
2430
2434
2519
2546
2509
2495
2496
2451
2454
2470
2456
2458
2483
2458
2466
2442
2493
2489
2478
2493
2504
2497
2492
2499
2470
2480
2466
2469
2447
2462
2455
2465
2485
2481
2500
2467
2487
2486
2506
2517
2489
2509
2483
2428
2458
2486
2500
2505
2499
2494
2505
2513
2483
2497
2512
2490
2495
2493
2489
2482
2420
2468
2456
2478
2477
2506
2462
2480
2500
2527
2500
2500
2501
2491
2483
2461
2467
2470
2445
2483
2478
2470
2472
2489
2469
2464
2478
2493
2506
2493
2503
2502
2458
2416
2461
2444
2466
2479
2502
2468
2474
2486
2505
2487
2511
2498
2508
2485
2459
2453
2479
2483
2452
2481
2470
2464
2456
2472
2455
2476
2492
2511
2510
2509
2482
2467
2485
2449
2489
2482
2494
2487
2496
2512
2479
2487
2504
2487
2470
2474
2478
2481
2498
2465
2464
2460
2456
2484
2487
2476
2499
2492
2476
2470
2440
2486
2489
2473
2470
2435
2449
2465
2451
2458
2463
2469
2450
2473
2478
2506
2535
2506
2494
2483
2479
2500
2471
2446
2490
2454
2468
2485
2451
2489
2461
2480
2447
2460
2475
2498
2492
2509
2505
2499
2482
2462
2467
2495
2500
2497
2485
2476
2478
2480
2503
2499
2507
2495
2478
2462
2463
2444
2454
2429
2485
2478
2490
2459
2502
2502
2499
2498
2485
2491
2481
2489
2487
2456
2455
2465
2473
2482
2492
2514
2456
2477
2474
2520
2508
2477
2486
2475
2489
2467
2438
2429
2450
2464
2473
2506
2504
2463
2471
2484
2500
2496
2493
2499
2453
2446
2445
2466
2471
2489
2477
2473
2475
2478
2482
2508
2565
2535
2523
2524
2520
2493
2552
2469
2461
2480
2462
2480
2484
2485
2465
2508
2510
2524
2520
2481
2491
2478
2482
2478
2476
2474
2453
2445
2456
2480
2470
2464
2496
2520
2534
2510
2509
2521
2505
2487
2487
2446
2432
2417
2467
2465
2455
2444
2472
2426
2453
2482
2511
2499
2513
2513
2489
2472
2464
2459
2492
2478
2477
2468
2466
2481
2497
2530
2538
2477
2506
2487
2464
2506
2486
2445
2420
2467
2492
2501
2498
2503
2461
2465
2442
2502
2494
2486
2479
2470
2466
2484
2439
2431
2455
2472
2483
2490
2496
2446
2498
2492
2501
2498
2511
2509
2494
2484
2464
2481
2487
2494
2476
2496
2489
2462
2501
2504
2535
2505
2455
2487
2488
2473
2487
2465
2478
2394
2413
2477
2463
2491
2481
2482
2460
2440
2455
2500
2473
2457
2445
2435
2436
2489
2531
2516
2496
2505
2498
2527
2492
2528
2504
2514
2522
2516
2466
2485
2475
2475
2425
2462
2460
2487
2484
2453
2468
2467
2488
2439
2505
2502
2501
2509
2477
2485
2470
2427
2455
2485
2480
2488
2476
2458
2498
2522
2531
2508
2503
2507
2472
2491
2467
2456
2463
2478
2458
2466
2431
2461
2472
2454
2453
2456
2478
2515
2520
2564
2521
2482
2465
2449
2448
2493
2492
2513
2490
2481
2465
2455
2510
2500
2528
2488
2484
2494
2464
2454
2453
2453
2484
2469
2470
2495
2467
2476
2497
2491
2496
2497
2551
2469
2458
2461
2497
2438
2462
2485
2473
2492
2526
2487
2538
2494
2506
2471
2509
2503
2489
2482
2454
2495
2437
2486
2466
2492
2437
2412
2485
2487
2454
2456
2512
2487
2491
2509
2501
2452
2431
2473
2441
2460
2451
2445
2487
2502
2550
2509
2514
2502
2503
2512
2499
2467
2420
2453
2481
2481
2493
2492
2500
2469
2475
2434
2487
2503
2489
2479
2486
2462
2428
2402
2462
2478
2478
2483
2493
2466
2512
2507
2535
2523
2495
2506
2492
2472
2500
2440
2472
2461
2459
2476
2468
2483
2490
2484
2519
2493
2499
2493
2482
2478
2477
2439
2423
2421
2395
2420
2432
2508
2471
2475
2497
2547
2531
2493
2507
2514
2500
2478
2462
2447
2461
2469
2487
2490
2471
2467
2497
2520
2501
2478
2499
2503
2498
2434
2476
2461
2409
2467
2469
2484
2490
2497
2482
2466
2520
2513
2518
2493
2502
2501
2509
2496
2464
2403
2427
2495
2479
2484
2491
2465
2470
2525
2530
2498
2489
2486
2486
2457
2460
2463
2500
2476
2441
2476
2481
2494
2477
2473
2515
2493
2491
2495
2466
2516
2497
2490
2394
2429
2459
2472
2490
2584
2488
2435
2478
2530
2512
2516
2512
2510
2503
2478
2484
2467
2437
2473
2466
2486
2510
2490
2492
2508
2468
2481
2481
2492
2446
2420
2435
2441
2445
2470
2466
2491
2496
2415
2478
2490
2480
2520
2541
2511
2509
2488
2494
2465
2485
2478
2461
2476
2477
2487
2482
2483
2508
2497
2493
2526
2517
2504
2491
2461
2462
2477
2477
2461
2459
2456
2463
2418
2466
2511
2536
2542
2561
2560
2525
2508
2524
2499
2474
2425
2478
2447
2486
2481
2467
2464
2463
2503
2509
2490
2476
2487
2481
2468
2487
2465
2482
2470
2492
2485
2474
2475
2490
2514
2506
2505
2501
2505
2505
2498
2447
2461
2461
2475
2466
2483
2479
2468
2471
2496
2484
2512
2492
2478
2489
2491
2494
2475
2458
2436
2433
2468
2465
2468
2471
2488
2510
2497
2442
2488
2494
2524
2514
2507
2481
2480
2441
2405
2462
2478
2472
2470
2436
2499
2481
2534
2512
2509
2508
2499
2444
2467
2470
2475
2454
2447
2479
2489
2501
2479
2496
2459
2503
2510
2506
2492
2455
2495
2476
2476
2463
2493
2476
2471
2508
2468
2509
2521
2530
2457
2484
2471
2489
2499
2455
2474
2474
2483
2479
2487
2491
2478
2492
2486
2490
2447
2508
2503
2511
2486
2456
2442
2437
2429
2440
2452
2442
2492
2502
2466
2465
2489
2511
2508
2493
2489
2482
2498
2494
2491
2491
2445
2525
2495
2455
2489
2497
2500
2481
2501
2455
2472
2502
2483
2447
2458
2454
2475
2498
2465
2479
2480
2508
2502
2492
2520
2533
2488
2506
2520
2490
2491
2484
2489
2465
2458
2475
2475
2518
2509
2472
2502
2526
2456
2489
2506
2486
2471
2453
2487
2446
2485
2444
2468
2481
2470
2475
2451
2476
2502
2491
2507
2529
2519
2510
2485
2455
2455
2490
2481
2483
2492
2489
2479
2456
2507
2525
2522
2511
2502
2496
2489
2498
2455
2416
2452
2449
2476
2482
2484
2488
2548
2499
2483
2502
2476
2475
2458
2465
2480
2503
2462
2507
2469
2483
2500
2502
2495
2481
2514
2490
2495
2546
2509
2454
2479
2455
2423
2394
2416
2449
2449
2476
2515
2459
2481
2452
2499
2481
2516
2503
2496
2485
2506
2469
2420
2467
2444
2481
2486
2480
2508
2496
2526
2508
2500
2505
2480
2507
2507
2490
2484
2439
2490
2446
2490
2496
2482
2459
2504
2511
2502
2481
2504
2509
2474
2490
2484
2467
2484
2475
2455
2489
2490
2481
2487
2468
2466
2480
2497
2476
2496
2448
2455
2454
2475
2481
2447
2464
2475
2424
2482
2467
2490
2469
2491
2500
2498
2501
2498
2501
2471
2418
2467
2475
2484
2487
2490
2454
2490
2503
2537
2504
2506
2498
2476
2456
2492
2461
2468
2487
2484
2478
2501
2503
2501
2488
2487
2475
2510
2513
2513
2513
2508
2464
2457
2476
2471
2453
2484
2478
2479
2445
2488
2537
2547
2506
2499
2479
2486
2474
2468
2469
2464
2452
2471
2475
2525
2472
2495
2494
2500
2495
2483
2497
2502
2476
2469
2435
2458
2466
2478
2476
2477
2492
2472
2493
2523
2493
2479
2505
2491
2485
2471
2496
2464
2452
2428
2484
2487
2499
2496
2461
2496
2469
2509
2505
2511
2495
2493
2456
2453
2472
2447
2457
2464
2489
2472
2496
2486
2483
2504
2475
2509
2519
2494
2496
2469
2458
2487
2453
2426
2467
2466
2460
2479
2502
2500
2521
2471
2493
2494
2472
2477
2456
2452
2401
2469
2485
2509
2489
2514
2475
2468
2496
2494
2511
2514
2485
2530
2505
2491
2475
2426
2440
2456
2509
2506
2498
2523
2519
2474
2525
2508
2508
2513
2501
2471
2475
2431
2463
2443
2449
2473
2478
2488
2459
2476
2487
2522
2483
2518
2503
2506
2484
2483
2467
2427
2449
2481
2476
2478
2485
2478
2502
2520
2518
2476
2488
2481
2456
2449
2456
2448
2489
2429
2464
2482
2463
2391
2483
2533
2502
2500
2498
2500
2481
2508
2477
2480
2447
2460
2464
2493
2512
2489
2516
2509
2494
2511
2505
2497
2488
2485
2480
2482
2469
2404
2425
2480
2479
2480
2485
2508
2526
2525
2478
2479
2501
2510
2503
2476
2473
2461
2478
2465
2451
2448
2473
2499
2484
2500
2526
2493
2528
2478
2502
2489
2503
2458
2462
2473
2457
2490
2473
2473
2508
2485
2473
2519
2508
2507
2503
2476
2461
2466
2498
2490
2437
2460
2466
2490
2482
2502
2492
2475
2503
2515
2504
2497
2491
2481
2464
2462
2464
2479
2477
2475
2474
2472
2472
2463
2478
2503
2510
2511
2481
2496
2486
2478
2483
2453
2449
2455
2475
2465
2489
2482
2511
2510
2470
2488
2489
2488
2476
2454
2488
2488
2500
2477
2501
2505
2492
2498
2500
2485
2487
2513
2531
2480
2479
2481
2467
2485
2474
2434
2459
2433
2477
2487
2483
2457
2495
2504
2535
2499
2495
2496
2485
2501
2496
2509
2493
2472
2482
2487
2529
2465
2486
2468
2489
2487
2474
2495
2490
2471
2467
2457
2433
2467
2446
2474
2490
2480
2441
2497
2457
2469
2451
2502
2519
2492
2514
2496
2469
2428
2397
2393
2462
2481
2497
2522
2486
2458
2481
2527
2518
2516
2502
2483
2480
2466
2464
2487
2484
2493
2466
2489
2493
2489
2512
2485
2482
2481
2505
2488
2470
2446
2454
2451
2448
2462
2477
2484
2459
2491
2488
2492
2466
2528
2508
2504
2491
2483
2463
2451
2470
2481
2480
2475
2497
2456
2486
2481
2471
2491
2478
2479
2457
2478
2477
2453
2471
2501
2495
2483
2498
2501
2506
2496
2494
2498
2517
2520
2506
2496
2515
2499
2462
2477
2465
2454
2479
2480
2483
2479
2504
2479
2460
2495
2485
2491
2505
2475
2487
2493
2449
2454
2473
2457
2479
2486
2514
2482
2507
2472
2502
2511
2511
2485
2474
2455
2456
2467
2440
2466
2471
2496
2448
2462
2465
2520
2531
2523
2509
2468
2523
2495
2489
2471
2435
2440
2452
2484
2498
2476
2448
2459
2476
2514
2476
2503
2493
2492
2489
2467
2430
2443
2470
2472
2480
2475
2480
2472
2473
2463
2458
2491
2513
2498
2481
2488
2471
2422
2438
2449
2482
2475
2467
2459
2459
2478
2485
2489
2502
2499
2502
2484
2491
2481
2486
2468
2476
2481
2491
2488
2508
2509
2487
2490
2493
2509
2503
2488
2505
2395
2449
2431
2478
2469
2474
2482
2520
2477
2503
2477
2482
2503
2513
2522
2497
2485
2456
2442
2427
2500
2466
2465
2471
2447
2464
2523
2474
2519
2480
2480
2491
2482
2522
2479
2438
2453
2441
2477
2473
2469
2470
2452
2471
2488
2500
2503
2459
2486
2480
2445
2422
2457
2509
2464
2472
2490
2491
2490
2489
2500
2527
2532
2525
2512
2507
2474
2481
2491
2431
2433
2459
2464
2502
2465
2420
2513
2505
2517
2498
2498
2501
2467
2445
2465
2479
2438
2471
2475
2492
2492
2492
2504
2488
2454
2489
2516
2493
2494
2481
2442
2455
2458
2439
2473
2466
2482
2479
2490
2490
2483
2506
2547
2518
2496
2505
2493
2500
2488
2447
2425
2457
2492
2473
2479
2502
2493
2471
2483
2512
2507
2507
2472
2473
2449
2432
2410
2420
2431
2441
2477
2488
2485
2459
2462
2509
2502
2542
2511
2513
2543
2496
2487
2486
2441
2474
2486
2477
2459
2462
2445
2443
2424
2520
2519
2517
2522
2522
2482
2469
2440
2487
2476
2469
2483
2487
2467
2467
2504
2472
2484
2496
2513
2525
2486
2500
2484
2498
2436
2458
2480
2500
2490
2495
2497
2490
2483
2495
2502
2526
2490
2495
2463
2437
2437
2467
2475
2484
2485
2450
2461
2500
2521
2496
2512
2505
2493
2493
2472
2487
2489
2462
2481
2484
2474
2470
2487
2467
2457
2454
2504
2462
2480
2497
2488
2462
2431
2469
2485
2471
2483
2474
2501
2516
2523
2506
2483
2470
2492
2515
2482
2503
2467
2453
2428
2450
2460
2460
2469
2445
2441
2476
2487
2498
2497
2491
2500
2520
2498
2497
2467
2507
2506
2480
2487
2498
2500
2501
2476
2503
2488
2500
2499
2503
2498
2482
2471
2480
2479
2477
2465
2475
2460
2491
2460
2447
2504
2518
2490
2504
2504
2498
2479
2484
2481
2478
2491
2432
2477
2479
2486
2491
2489
2522
2496
2499
2507
2484
2496
2482
2479
2486
2461
2461
2471
2487
2481
2478
2503
2498
2453
2485
2506
2506
2496
2515
2502
2473
2420
2452
2475
2480
2483
2470
2469
2455
2458
2486
2512
2511
2501
2525
2478
2481
2476
2523
2480
2458
2470
2477
2479
2466
2483
2483
2507
2474
2467
2450
2459
2469
2483
2426
2498
2479
2470
2500
2485
2484
2539
2522
2510
2525
2498
2481
2473
2484
2476
2455
2469
2464
2466
2479
2459
2503
2503
2500
2511
2508
2481
2491
2500
2535
2498
2493
2489
2466
2433
2474
2486
2487
2485
2506
2457
2481
2495
2504
2516
2508
2473
2443
2463
2475
2436
2423
2458
2462
2479
2491
2491
2496
2509
2471
2470
2486
2496
2490
2488
2449
2468
2470
2445
2430
2456
2460
2464
2458
2459
2499
2529
2488
2519
2521
2503
2500
2486
2461
2453
2461
2478
2473
2483
2486
2489
2492
2474
2491
2521
2503
2506
2503
2497
2499
2471
2465
2457
2468
2481
2480
2481
2473
2499
2526
2538
2490
2433
2455
2513
2510
2494
2482
2428
2438
2499
2484
2472
2430
2464
2486
2517
2510
2509
2505
2500
2505
2508
2489
2436
2445
2441
2490
2501
2477
2489
2470
2481
2484
2510
2492
2496
2498
2477
2478
2449
2442
2465
2460
2477
2476
2472
2465
2475
2494
2496
2498
2511
2497
2495
2469
2477
2478
2470
2523
2471
2482
2478
2466
2443
2476
2476
2537
2506
2526
2514
2503
2509
2450
2467
2443
2457
2478
2491
2489
2498
2470
2469
2478
2486
2484
2506
2497
2499
2471
2471
2456
2475
2456
2498
2476
2484
2459
2474
2510
2520
2504
2503
2504
2487
2481
2482
2476
2465
2442
2491
2484
2473
2490
2483
2473
2449
2484
2468
2465
2492
2498
2510
2493
2481
2469
2501
2475
2480
2502
2496
2506
2471
2517
2478
2501
2513
2513
2508
2502
2502
2468
2414
2429
2493
2487
2493
2497
2461
2503
2519
2546
2488
2507
2504
2487
2483
2489
2495
2484
2494
2501
2468
2484
2454
2490
2497
2534
2508
2535
2491
2480
2480
2496
2471
2463
2406
2421
2470
2483
2496
2487
2470
2475
2543
2530
2503
2517
2492
2464
2426
2478
2455
2513
2486
2490
2483
2474
2507
2505
2501
2516
2506
2503
2496
2454
2481
2500
2473
2439
2455
2470
2494
2484
2490
2500
2494
2525
2493
2513
2480
2493
2478
2450
2422
2496
2553
2498
2479
2492
2489
2490
2490
2475
2500
2527
2505
2507
2497
2481
2483
2466
2450
2473
2431
2464
2457
2467
2465
2458
2441
2435
2493
2483
2481
2514
2518
2510
2495
2460
2468
2453
2471
2478
2483
2459
2467
2499
2528
2527
2521
2504
2494
2483
2485
2483
2480
2484
2492
2484
2482
2475
2477
2455
2454
2516
2526
2513
2503
2481
2493
2499
2493
2448
2460
2483
2467
2476
2474
2478
2495
2493
2534
2516
2507
2514
2495
2478
2482
2462
2496
2481
2471
2476
2478
2497
2452
2474
2503
2544
2516
2507
2506
2507
2504
2496
2489
2447
2442
2495
2485
2486
2505
2464
2502
2491
2497
2484
2516
2521
2504
2502
2458
2453
2463
2480
2461
2474
2477
2441
2447
2457
2485
2509
2511
2506
2503
2513
2470
2451
2458
2480
2489
2506
2500
2517
2460
2517
2519
2562
2554
2504
2510
2524
2463
2488
2471
2478
2478
2472
2479
2463
2472
2486
2475
2505
2521
2485
2491
2510
2505
2495
2491
2463
2407
2433
2470
2472
2476
2477
2490
2477
2498
2499
2529
2535
2508
2508
2502
2465
2455
2427
2481
2456
2456
2472
2454
2450
2488
2503
2512
2502
2497
2496
2514
2472
2516
2486
2446
2452
2470
2488
2497
2494
2502
2502
2493
2449
2466
2490
2482
2457
2476
2461
2425
2473
2485
2492
2475
2460
2481
2490
2514
2552
2540
2507
2514
2486
2504
2494
2488
2474
2467
2463
2474
2477
2516
2485
2448
2474
2481
2493
2477
2499
2500
2480
2463
2483
2399
2456
2470
2489
2485
2491
2474
2474
2515
2496
2519
2496
2481
2482
2484
2496
2491
2455
2432
2481
2479
2508
2487
2496
2470
2487
2499
2546
2492
2495
2484
2483
2506
2450
2417
2422
2469
2471
2480
2495
2466
2440
2474
2464
2483
2533
2532
2504
2513
2512
2459
2426
2487
2480
2480
2494
2489
2456
2484
2519
2477
2493
2516
2501
2490
2473
2460
2449
2454
2479
2474
2489
2486
2488
2502
2483
2482
2502
2500
2487
2483
2482
2494
2457
2489
2485
2468
2445
2474
2485
2497
2430
2488
2486
2478
2496
2479
2493
2462
2478
2482
2500
2441
2503
2506
2498
2475
2514
2503
2499
2505
2496
2518
2511
2468
2497
2460
2472
2468
2497
2489
2487
2490
2524
2467
2484
2473
2482
2492
2501
2500
2495
2498
2489
2467
2438
2453
2471
2487
2487
2500
2461
2481
2459
2474
2491
2502
2507
2491
2492
2479
2505
2476
2461
2495
2490
2490
2498
2479
2495
2474
2531
2454
2486
2502
2486
2499
2471
2415
2414
2425
2489
2472
2481
2499
2476
2468
2493
2538
2513
2513
2493
2539
2465
2504
2498
2511
2470
2509
2479
2484
2489
2462
2487
2461
2496
2513
2501
2493
2499
2462
2462
2461
2480
2482
2480
2480
2486
2462
2522
2554
2540
2498
2509
2498
2496
2460
2470
