16:31:48:765 -> 2460.00
16:31:48:767 -> 2476.00
16:31:48:768 -> 2490.00
16:31:48:769 -> 2478.00
16:31:48:770 -> 2478.00
16:31:48:771 -> 2444.00
16:31:48:772 -> 2427.00
16:31:48:774 -> 2423.00
16:31:48:775 -> 2450.00
16:31:48:776 -> 2455.00
16:31:48:777 -> 2405.00
16:31:48:779 -> 2463.00
16:31:48:780 -> 2479.00
16:31:48:781 -> 2472.00
16:31:48:794 -> 2478.00
16:31:48:794 -> 2478.00
16:31:48:794 -> 2474.00
16:31:48:794 -> 2441.00
16:31:48:794 -> 2465.00
16:31:48:794 -> 2468.00
16:31:48:794 -> 2464.00
16:31:48:794 -> 2471.00
16:31:48:794 -> 2446.00
16:31:48:795 -> 2418.00
16:31:48:795 -> 2420.00
16:31:48:796 -> 2432.00
16:31:48:797 -> 2414.00
16:31:48:797 -> 2433.00
16:31:48:801 -> 2445.00
16:31:48:802 -> 2436.00
16:31:48:800 -> 2446.00
16:31:48:803 -> 2431.00
16:31:48:803 -> 2464.00
16:31:48:805 -> 2509.00
16:31:48:806 -> 2506.00
16:31:48:807 -> 2508.00
16:31:48:808 -> 2484.00
16:31:48:809 -> 2461.00
16:31:48:811 -> 2422.00
16:31:48:812 -> 2441.00
16:31:48:813 -> 2430.00
16:31:48:814 -> 2417.00
16:31:48:815 -> 2394.00
16:31:48:816 -> 2451.00
16:31:48:818 -> 2441.00
16:31:48:819 -> 2453.00
16:31:48:820 -> 2490.00
16:31:48:821 -> 2453.00
16:31:48:822 -> 2480.00
16:31:48:824 -> 2445.00
16:31:48:825 -> 2475.00
16:31:48:826 -> 2477.00
16:31:48:827 -> 2491.00
16:31:48:829 -> 2481.00
16:31:48:830 -> 2479.00
16:31:48:841 -> 2491.00
16:31:48:841 -> 2458.00
16:31:48:841 -> 2458.00
16:31:48:841 -> 2407.00
16:31:48:841 -> 2405.00
16:31:48:841 -> 2429.00
16:31:48:841 -> 2445.00
16:31:48:841 -> 2449.00
16:31:48:841 -> 2455.00
16:31:48:843 -> 2460.00
16:31:48:852 -> 2442.00
16:31:48:852 -> 2480.00
16:31:48:852 -> 2480.00
16:31:48:852 -> 2483.00
16:31:48:852 -> 2461.00
16:31:48:852 -> 2461.00
16:31:48:852 -> 2450.00
16:31:48:852 -> 2422.00
16:31:48:853 -> 2467.00
16:31:48:853 -> 2435.00
16:31:48:872 -> 2423.00
16:31:48:872 -> 2429.00
16:31:48:872 -> 2459.00
16:31:48:872 -> 2426.00
16:31:48:872 -> 2452.00
16:31:48:872 -> 2477.00
16:31:48:872 -> 2459.00
16:31:48:876 -> 2497.00
16:31:48:876 -> 2506.00
16:31:48:876 -> 2462.00
16:31:48:876 -> 2457.00
16:31:48:876 -> 2471.00
16:31:48:876 -> 2475.00
16:31:48:876 -> 2473.00
16:31:48:876 -> 2493.00
16:31:48:876 -> 2485.00
16:31:48:876 -> 2443.00
16:31:48:876 -> 2411.00
16:31:48:880 -> 2411.00
16:31:48:880 -> 2470.00
16:31:48:880 -> 2464.00
16:31:48:880 -> 2463.00
16:31:48:881 -> 2461.00
16:31:48:882 -> 2465.00
16:31:48:883 -> 2447.00
16:31:48:884 -> 2457.00
16:31:48:886 -> 2425.00
16:31:48:887 -> 2446.00
16:31:48:888 -> 2462.00
16:31:48:889 -> 2455.00
16:31:48:890 -> 2463.00
16:31:48:923 -> 2474.00
16:31:48:923 -> 2474.00
16:31:48:923 -> 2443.00
16:31:48:923 -> 2397.00
16:31:48:923 -> 2392.00
16:31:48:923 -> 2434.00
16:31:48:923 -> 2434.00
16:31:48:923 -> 2472.00
16:31:48:923 -> 2470.00
16:31:48:923 -> 2442.00
16:31:48:923 -> 2461.00
16:31:48:923 -> 2470.00
16:31:48:923 -> 2488.00
16:31:48:923 -> 2454.00
16:31:48:923 -> 2466.00
16:31:48:923 -> 2461.00
16:31:48:923 -> 2474.00
16:31:48:923 -> 2456.00
16:31:48:923 -> 2454.00
16:31:48:923 -> 2440.00
16:31:48:923 -> 2459.00
16:31:48:923 -> 2417.00
16:31:48:923 -> 2449.00
16:31:48:923 -> 2461.00
16:31:48:923 -> 2433.00
16:31:48:923 -> 2441.00
16:31:48:923 -> 2464.00
16:31:49:007 -> 2434.00
16:31:49:007 -> 2457.00
16:31:49:007 -> 2451.00
16:31:49:007 -> 2470.00
16:31:49:007 -> 2482.00
16:31:49:007 -> 2482.00
16:31:49:007 -> 2491.00
16:31:49:007 -> 2447.00
16:31:49:007 -> 2441.00
16:31:49:007 -> 2450.00
16:31:49:007 -> 2438.00
16:31:49:007 -> 2454.00
16:31:49:007 -> 2444.00
16:31:49:007 -> 2450.00
16:31:49:007 -> 2451.00
16:31:49:007 -> 2426.00
16:31:49:007 -> 2445.00
16:31:49:007 -> 2443.00
16:31:49:007 -> 2466.00
16:31:49:007 -> 2467.00
16:31:49:007 -> 2446.00
16:31:49:007 -> 2471.00
16:31:49:007 -> 2459.00
16:31:49:007 -> 2443.00
16:31:49:028 -> 2452.00
16:31:49:028 -> 2445.00
16:31:49:028 -> 2439.00
16:31:49:028 -> 2401.00
16:31:49:028 -> 2409.00
16:31:49:028 -> 2448.00
16:31:49:028 -> 2448.00
16:31:49:028 -> 2456.00
16:31:49:028 -> 2437.00
16:31:49:028 -> 2444.00
16:31:49:028 -> 2483.00
16:31:49:028 -> 2476.00
16:31:49:028 -> 2471.00
16:31:49:028 -> 2474.00
16:31:49:028 -> 2529.00
16:31:49:028 -> 2472.00
16:31:49:028 -> 2437.00
16:31:49:028 -> 2429.00
16:31:49:028 -> 2431.00
16:31:49:028 -> 2457.00
16:31:49:028 -> 2446.00
16:31:49:028 -> 2412.00
16:31:49:028 -> 2434.00
16:31:49:028 -> 2444.00
16:31:49:028 -> 2443.00
16:31:49:028 -> 2447.00
16:31:49:028 -> 2445.00
16:31:49:028 -> 2463.00
16:31:49:028 -> 2486.00
16:31:49:028 -> 2477.00
16:31:49:028 -> 2499.00
16:31:49:028 -> 2486.00
16:31:49:028 -> 2470.00
16:31:49:028 -> 2445.00
16:31:49:028 -> 2438.00
16:31:49:028 -> 2445.00
16:31:49:028 -> 2457.00
16:31:49:028 -> 2464.00
16:31:49:028 -> 2446.00
16:31:49:028 -> 2451.00
16:31:49:028 -> 2447.00
16:31:49:028 -> 2401.00
16:31:49:028 -> 2460.00
16:31:49:028 -> 2469.00
16:31:49:028 -> 2480.00
16:31:49:028 -> 2466.00
16:31:49:028 -> 2468.00
16:31:49:028 -> 2495.00
16:31:49:028 -> 2492.00
16:31:49:028 -> 2469.00
16:31:49:028 -> 2452.00
16:31:49:028 -> 2424.00
16:31:49:028 -> 2441.00
16:31:49:028 -> 2406.00
16:31:49:028 -> 2430.00
16:31:49:028 -> 2440.00
16:31:49:028 -> 2443.00
16:31:49:028 -> 2440.00
16:31:49:028 -> 2458.00
16:31:49:028 -> 2443.00
16:31:49:028 -> 2444.00
16:31:49:028 -> 2452.00
16:31:49:028 -> 2441.00
16:31:49:028 -> 2466.00
16:31:49:031 -> 2482.00
16:31:49:031 -> 2471.00
16:31:49:031 -> 2469.00
16:31:49:032 -> 2435.00
16:31:49:033 -> 2448.00
16:31:49:034 -> 2423.00
16:31:49:037 -> 2433.00
16:31:49:037 -> 2441.00
16:31:49:038 -> 2445.00
16:31:49:046 -> 2453.00
16:31:49:046 -> 2457.00
16:31:49:046 -> 2476.00
16:31:49:046 -> 2482.00
16:31:49:046 -> 2448.00
16:31:49:046 -> 2493.00
16:31:49:047 -> 2501.00
16:31:49:047 -> 2468.00
16:31:49:049 -> 2474.00
16:31:49:050 -> 2463.00
16:31:49:051 -> 2447.00
16:31:49:052 -> 2440.00
16:31:49:053 -> 2433.00
16:31:49:054 -> 2405.00
16:31:49:056 -> 2441.00
16:31:49:057 -> 2457.00
16:31:49:058 -> 2455.00
16:31:49:059 -> 2457.00
16:31:49:060 -> 2426.00
16:31:49:062 -> 2438.00
16:31:49:063 -> 2458.00
16:31:49:064 -> 2445.00
16:31:49:065 -> 2433.00
16:31:49:066 -> 2419.00
16:31:49:070 -> 2480.00
16:31:49:070 -> 2474.00
16:31:49:070 -> 2465.00
16:31:49:071 -> 2445.00
16:31:49:072 -> 2456.00
16:31:49:073 -> 2414.00
16:31:49:075 -> 2356.00
16:31:49:076 -> 2371.00
16:31:49:077 -> 2448.00
16:31:49:078 -> 2469.00
16:31:49:080 -> 2470.00
16:31:49:081 -> 2457.00
16:31:49:084 -> 2465.00
16:31:49:084 -> 2463.00
16:31:49:085 -> 2490.00
16:31:49:085 -> 2508.00
16:31:49:086 -> 2498.00
16:31:49:088 -> 2482.00
16:31:49:095 -> 2501.00
16:31:49:104 -> 2497.00
16:31:49:104 -> 2496.00
16:31:49:104 -> 2460.00
16:31:49:104 -> 2447.00
16:31:49:104 -> 2406.00
16:31:49:104 -> 2439.00
16:31:49:104 -> 2438.00
16:31:49:104 -> 2445.00
16:31:49:104 -> 2451.00
16:31:49:114 -> 2467.00
16:31:49:114 -> 2479.00
16:31:49:114 -> 2473.00
16:31:49:114 -> 2465.00
16:31:49:114 -> 2469.00
16:31:49:114 -> 2468.00
16:31:49:114 -> 2484.00
16:31:49:114 -> 2501.00
16:31:49:114 -> 2476.00
16:31:49:114 -> 2447.00
16:31:49:114 -> 2437.00
16:31:49:116 -> 2436.00
16:31:49:116 -> 2447.00
16:31:49:116 -> 2434.00
16:31:49:117 -> 2441.00
16:31:49:119 -> 2449.00
16:31:49:120 -> 2439.00
16:31:49:121 -> 2446.00
16:31:49:122 -> 2423.00
16:31:49:123 -> 2454.00
16:31:49:125 -> 2459.00
16:31:49:126 -> 2468.00
16:31:49:128 -> 2465.00
16:31:49:128 -> 2495.00
16:31:49:131 -> 2501.00
16:31:49:131 -> 2485.00
16:31:49:147 -> 2457.00
16:31:49:147 -> 2418.00
16:31:49:147 -> 2447.00
16:31:49:147 -> 2423.00
16:31:49:147 -> 2435.00
16:31:49:147 -> 2440.00
16:31:49:147 -> 2454.00
16:31:49:147 -> 2459.00
16:31:49:147 -> 2429.00
16:31:49:147 -> 2455.00
16:31:49:147 -> 2440.00
16:31:49:147 -> 2431.00
16:31:49:153 -> 2463.00
16:31:49:153 -> 2450.00
16:31:49:153 -> 2459.00
16:31:49:153 -> 2460.00
16:31:49:153 -> 2460.00
16:31:49:153 -> 2468.00
16:31:49:157 -> 2460.00
16:31:49:157 -> 2428.00
16:31:49:157 -> 2379.00
16:31:49:157 -> 2438.00
16:31:49:158 -> 2439.00
16:31:49:159 -> 2435.00
16:31:49:160 -> 2458.00
16:31:49:161 -> 2471.00
16:31:49:163 -> 2446.00
16:31:49:166 -> 2466.00
16:31:49:166 -> 2478.00
16:31:49:172 -> 2493.00
16:31:49:172 -> 2485.00
16:31:49:172 -> 2480.00
16:31:49:172 -> 2485.00
16:31:49:172 -> 2459.00
16:31:49:173 -> 2446.00
16:31:49:181 -> 2455.00
16:31:49:181 -> 2485.00
16:31:49:181 -> 2451.00
16:31:49:181 -> 2452.00
16:31:49:181 -> 2449.00
16:31:49:181 -> 2458.00
16:31:49:181 -> 2456.00
16:31:49:191 -> 2467.00
16:31:49:191 -> 2443.00
16:31:49:191 -> 2470.00
16:31:49:191 -> 2433.00
16:31:49:191 -> 2491.00
16:31:49:191 -> 2491.00
16:31:49:191 -> 2474.00
16:31:49:191 -> 2477.00
16:31:49:193 -> 2466.00
16:31:49:193 -> 2448.00
16:31:49:198 -> 2441.00
16:31:49:198 -> 2442.00
16:31:49:198 -> 2447.00
16:31:49:198 -> 2438.00
16:31:49:199 -> 2427.00
16:31:49:200 -> 2449.00
16:31:49:205 -> 2452.00
16:31:49:205 -> 2466.00
16:31:49:205 -> 2464.00
16:31:49:205 -> 2477.00
16:31:49:208 -> 2485.00
16:31:49:208 -> 2469.00
16:31:49:228 -> 2469.00
16:31:49:228 -> 2446.00
16:31:49:228 -> 2444.00
16:31:49:228 -> 2441.00
16:31:49:228 -> 2420.00
16:31:49:228 -> 2405.00
16:31:49:228 -> 2372.00
16:31:49:228 -> 2426.00
16:31:49:228 -> 2422.00
16:31:49:228 -> 2454.00
16:31:49:228 -> 2479.00
16:31:49:228 -> 2448.00
16:31:49:228 -> 2426.00
16:31:49:228 -> 2454.00
16:31:49:228 -> 2496.00
16:31:49:228 -> 2512.00
16:31:49:228 -> 2464.00
16:31:49:228 -> 2482.00
16:31:49:231 -> 2477.00
16:31:49:231 -> 2439.00
16:31:49:232 -> 2445.00
16:31:49:233 -> 2444.00
16:31:49:234 -> 2411.00
16:31:49:235 -> 2406.00
16:31:49:236 -> 2390.00
16:31:49:238 -> 2420.00
16:31:49:239 -> 2455.00
16:31:49:241 -> 2472.00
16:31:49:246 -> 2480.00
16:31:49:246 -> 2462.00
16:31:49:246 -> 2460.00
16:31:49:246 -> 2452.00
16:31:49:250 -> 2469.00
16:31:49:250 -> 2472.00
16:31:49:250 -> 2493.00
16:31:49:250 -> 2474.00
16:31:49:251 -> 2466.00
16:31:49:254 -> 2461.00
16:31:49:254 -> 2433.00
16:31:49:254 -> 2421.00
16:31:49:257 -> 2409.00
16:31:49:257 -> 2428.00
16:31:49:258 -> 2431.00
16:31:49:259 -> 2441.00
16:31:49:260 -> 2458.00
16:31:49:261 -> 2431.00
16:31:49:263 -> 2459.00
16:31:49:264 -> 2454.00
16:31:49:265 -> 2489.00
16:31:49:266 -> 2500.00
16:31:49:267 -> 2481.00
16:31:49:269 -> 2496.00
16:31:49:270 -> 2478.00
16:31:49:271 -> 2470.00
16:31:49:273 -> 2463.00
16:31:49:274 -> 2446.00
16:31:49:277 -> 2454.00
16:31:49:277 -> 2436.00
16:31:49:280 -> 2414.00
16:31:49:280 -> 2430.00
16:31:49:281 -> 2433.00
16:31:49:281 -> 2463.00
16:31:49:282 -> 2454.00
16:31:49:283 -> 2485.00
16:31:49:284 -> 2466.00
16:31:49:285 -> 2487.00
16:31:49:291 -> 2459.00
16:31:49:291 -> 2464.00
16:31:49:291 -> 2486.00
16:31:49:291 -> 2487.00
16:31:49:295 -> 2500.00
16:31:49:295 -> 2456.00
16:31:49:295 -> 2435.00
16:31:49:297 -> 2393.00
16:31:49:297 -> 2398.00
16:31:49:298 -> 2428.00
16:31:49:299 -> 2456.00
16:31:49:299 -> 2463.00
16:31:49:301 -> 2433.00
16:31:49:302 -> 2458.00
16:31:49:304 -> 2440.00
16:31:49:305 -> 2459.00
16:31:49:306 -> 2453.00
16:31:49:307 -> 2480.00
16:31:49:308 -> 2460.00
16:31:49:309 -> 2439.00
16:31:49:310 -> 2444.00
16:31:49:312 -> 2404.00
16:31:49:316 -> 2389.00
16:31:49:316 -> 2372.00
16:31:49:316 -> 2404.00
16:31:49:323 -> 2439.00
16:31:49:323 -> 2455.00
16:31:49:323 -> 2446.00
16:31:49:323 -> 2448.00
16:31:49:323 -> 2464.00
16:31:49:323 -> 2424.00
16:31:49:323 -> 2436.00
16:31:49:325 -> 2485.00
16:31:49:327 -> 2506.00
16:31:49:328 -> 2472.00
16:31:49:328 -> 2510.00
16:31:49:329 -> 2486.00
16:31:49:331 -> 2474.00
16:31:49:332 -> 2479.00
16:31:49:333 -> 2486.00
16:31:49:343 -> 2455.00
16:31:49:343 -> 2432.00
16:31:49:343 -> 2428.00
16:31:49:343 -> 2427.00
16:31:49:343 -> 2436.00
16:31:49:343 -> 2471.00
16:31:49:343 -> 2448.00
16:31:49:343 -> 2482.00
16:31:49:352 -> 2464.00
16:31:49:352 -> 2474.00
16:31:49:352 -> 2451.00
16:31:49:352 -> 2486.00
16:31:49:352 -> 2485.00
16:31:49:352 -> 2490.00
16:31:49:352 -> 2455.00
16:31:49:359 -> 2464.00
16:31:49:359 -> 2463.00
16:31:49:359 -> 2407.00
16:31:49:359 -> 2389.00
16:31:49:359 -> 2440.00
16:31:49:359 -> 2457.00
16:31:49:368 -> 2450.00
16:31:49:368 -> 2454.00
16:31:49:368 -> 2424.00
16:31:49:368 -> 2430.00
16:31:49:368 -> 2455.00
16:31:49:368 -> 2487.00
16:31:49:368 -> 2471.00
16:31:49:368 -> 2471.00
16:31:49:377 -> 2443.00
16:31:49:377 -> 2457.00
16:31:49:377 -> 2450.00
16:31:49:377 -> 2449.00
16:31:49:377 -> 2424.00
16:31:49:377 -> 2409.00
16:31:49:377 -> 2412.00
16:31:49:381 -> 2392.00
16:31:49:381 -> 2450.00
16:31:49:381 -> 2456.00
16:31:49:381 -> 2458.00
16:31:49:390 -> 2443.00
16:31:49:390 -> 2440.00
16:31:49:390 -> 2484.00
16:31:49:390 -> 2482.00
16:31:49:390 -> 2469.00
16:31:49:390 -> 2479.00
16:31:49:390 -> 2477.00
16:31:49:391 -> 2459.00
16:31:49:391 -> 2429.00
16:31:49:398 -> 2413.00
16:31:49:398 -> 2424.00
16:31:49:398 -> 2389.00
16:31:49:398 -> 2387.00
16:31:49:398 -> 2408.00
16:31:49:414 -> 2440.00
16:31:49:414 -> 2457.00
16:31:49:414 -> 2475.00
16:31:49:414 -> 2489.00
16:31:49:414 -> 2461.00
16:31:49:414 -> 2471.00
16:31:49:414 -> 2474.00
16:31:49:414 -> 2492.00
16:31:49:414 -> 2482.00
16:31:49:414 -> 2501.00
16:31:49:414 -> 2472.00
16:31:49:414 -> 2500.00
16:31:49:414 -> 2461.00
16:31:49:414 -> 2429.00
16:31:49:417 -> 2398.00
16:31:49:417 -> 2378.00
16:31:49:419 -> 2418.00
16:31:49:419 -> 2430.00
16:31:49:445 -> 2407.00
16:31:49:445 -> 2405.00
16:31:49:445 -> 2440.00
16:31:49:445 -> 2419.00
16:31:49:445 -> 2464.00
16:31:49:445 -> 2517.00
16:31:49:445 -> 2492.00
16:31:49:445 -> 2484.00
16:31:49:445 -> 2470.00
16:31:49:445 -> 2484.00
16:31:49:445 -> 2476.00
16:31:49:445 -> 2480.00
16:31:49:445 -> 2463.00
16:31:49:445 -> 2429.00
16:31:49:455 -> 2409.00
16:31:49:455 -> 2436.00
16:31:49:455 -> 2483.00
16:31:49:455 -> 2471.00
16:31:49:455 -> 2482.00
16:31:49:455 -> 2437.00
16:31:49:455 -> 2513.00
16:31:49:455 -> 2498.00
16:31:49:455 -> 2503.00
16:31:49:455 -> 2487.00
16:31:49:455 -> 2492.00
16:31:49:455 -> 2477.00
16:31:49:455 -> 2458.00
16:31:49:455 -> 2445.00
16:31:49:455 -> 2418.00
16:31:49:455 -> 2438.00
16:31:49:460 -> 2408.00
16:31:49:460 -> 2429.00
16:31:49:460 -> 2436.00
16:31:49:460 -> 2443.00
16:31:49:460 -> 2449.00
16:31:49:461 -> 2454.00
16:31:49:463 -> 2444.00
16:31:49:466 -> 2466.00
16:31:49:466 -> 2497.00
16:31:49:466 -> 2457.00
16:31:49:467 -> 2512.00
16:31:49:469 -> 2473.00
16:31:49:470 -> 2474.00
16:31:49:471 -> 2486.00
16:31:49:472 -> 2470.00
16:31:49:473 -> 2462.00
16:31:49:474 -> 2427.00
16:31:49:476 -> 2398.00
16:31:49:477 -> 2436.00
16:31:49:478 -> 2460.00
16:31:49:480 -> 2440.00
16:31:49:480 -> 2452.00
16:31:49:482 -> 2427.00
16:31:49:484 -> 2415.00
16:31:49:485 -> 2459.00
16:31:49:486 -> 2465.00
16:31:49:487 -> 2464.00
16:31:49:488 -> 2444.00
16:31:49:489 -> 2465.00
16:31:49:490 -> 2527.00
16:31:49:491 -> 2434.00
16:31:49:492 -> 2429.00
16:31:49:493 -> 2441.00
16:31:49:495 -> 2440.00
16:31:49:496 -> 2450.00
16:31:49:497 -> 2454.00
16:31:49:498 -> 2420.00
16:31:49:499 -> 2430.00
16:31:49:502 -> 2460.00
16:31:49:551 -> 2452.00
16:31:49:551 -> 2445.00
16:31:49:551 -> 2406.00
16:31:49:551 -> 2470.00
16:31:49:551 -> 2471.00
16:31:49:551 -> 2488.00
16:31:49:551 -> 2495.00
16:31:49:551 -> 2457.00
16:31:49:579 -> 2468.00
16:31:49:579 -> 2453.00
16:31:49:579 -> 2382.00
16:31:49:579 -> 2424.00
16:31:49:579 -> 2428.00
16:31:49:579 -> 2420.00
16:31:49:579 -> 2430.00
16:31:49:579 -> 2444.00
16:31:49:579 -> 2455.00
16:31:49:579 -> 2443.00
16:31:49:579 -> 2425.00
16:31:49:579 -> 2485.00
16:31:49:579 -> 2481.00
16:31:49:579 -> 2487.00
16:31:49:579 -> 2478.00
16:31:49:579 -> 2488.00
16:31:49:579 -> 2478.00
16:31:49:579 -> 2434.00
16:31:49:579 -> 2439.00
16:31:49:579 -> 2438.00
16:31:49:579 -> 2430.00
16:31:49:579 -> 2398.00
16:31:49:579 -> 2506.00
16:31:49:579 -> 2439.00
16:31:49:579 -> 2450.00
16:31:49:579 -> 2436.00
16:31:49:579 -> 2441.00
16:31:49:579 -> 2452.00
16:31:49:579 -> 2490.00
16:31:49:579 -> 2426.00
16:31:49:579 -> 2490.00
16:31:49:579 -> 2497.00
16:31:49:579 -> 2476.00
16:31:49:579 -> 2473.00
16:31:49:579 -> 2479.00
16:31:49:579 -> 2438.00
16:31:49:579 -> 2412.00
16:31:49:579 -> 2405.00
16:31:49:579 -> 2395.00
16:31:49:579 -> 2444.00
16:31:49:579 -> 2447.00
16:31:49:579 -> 2449.00
16:31:49:579 -> 2413.00
16:31:49:583 -> 2473.00
16:31:49:583 -> 2439.00
16:31:49:583 -> 2439.00
16:31:49:583 -> 2430.00
16:31:49:583 -> 2469.00
16:31:49:583 -> 2480.00
16:31:49:583 -> 2477.00
16:31:49:583 -> 2462.00
16:31:49:583 -> 2445.00
16:31:49:583 -> 2420.00
16:31:49:583 -> 2400.00
16:31:49:583 -> 2401.00
16:31:49:583 -> 2440.00
16:31:49:583 -> 2416.00
16:31:49:583 -> 2435.00
16:31:49:583 -> 2447.00
16:31:49:583 -> 2411.00
16:31:49:584 -> 2431.00
16:31:49:584 -> 2438.00
16:31:49:586 -> 2488.00
16:31:49:592 -> 2482.00
16:31:49:592 -> 2448.00
16:31:49:592 -> 2428.00
16:31:49:592 -> 2476.00
16:31:49:592 -> 2468.00
16:31:49:594 -> 2453.00
16:31:49:594 -> 2437.00
16:31:49:595 -> 2405.00
16:31:49:596 -> 2466.00
16:31:49:598 -> 2463.00
16:31:49:601 -> 2465.00
16:31:49:601 -> 2499.00
16:31:49:601 -> 2470.00
16:31:49:602 -> 2496.00
16:31:49:603 -> 2457.00
16:31:49:604 -> 2494.00
16:31:49:605 -> 2508.00
16:31:49:606 -> 2468.00
16:31:49:608 -> 2478.00
16:31:49:609 -> 2476.00
16:31:49:628 -> 2469.00
16:31:49:628 -> 2433.00
16:31:49:628 -> 2437.00
16:31:49:628 -> 2412.00
16:31:49:628 -> 2426.00
16:31:49:628 -> 2419.00
16:31:49:628 -> 2416.00
16:31:49:628 -> 2432.00
16:31:49:628 -> 2438.00
16:31:49:628 -> 2439.00
16:31:49:628 -> 2456.00
16:31:49:665 -> 2467.00
16:31:49:665 -> 2484.00
16:31:49:665 -> 2448.00
16:31:49:665 -> 2495.00
16:31:49:665 -> 2480.00
16:31:49:665 -> 2468.00
16:31:49:665 -> 2478.00
16:31:49:665 -> 2463.00
16:31:49:665 -> 2461.00
16:31:49:665 -> 2472.00
16:31:49:665 -> 2459.00
16:31:49:665 -> 2416.00
16:31:49:665 -> 2443.00
16:31:49:665 -> 2444.00
16:31:49:665 -> 2450.00
16:31:49:665 -> 2429.00
16:31:49:665 -> 2476.00
16:31:49:665 -> 2452.00
16:31:49:665 -> 2453.00
16:31:49:665 -> 2514.00
16:31:49:665 -> 2450.00
16:31:49:665 -> 2471.00
16:31:49:665 -> 2471.00
16:31:49:665 -> 2459.00
16:31:49:665 -> 2439.00
16:31:49:665 -> 2424.00
16:31:49:665 -> 2432.00
16:31:49:665 -> 2453.00
16:31:49:665 -> 2415.00
16:31:49:665 -> 2434.00
16:31:49:665 -> 2433.00
16:31:49:665 -> 2472.00
16:31:49:665 -> 2433.00
16:31:49:665 -> 2458.00
16:31:49:665 -> 2455.00
16:31:49:697 -> 2495.00
16:31:49:697 -> 2460.00
16:31:49:697 -> 2493.00
16:31:49:697 -> 2468.00
16:31:49:697 -> 2445.00
16:31:49:697 -> 2455.00
16:31:49:697 -> 2443.00
16:31:49:697 -> 2437.00
16:31:49:697 -> 2400.00
16:31:49:697 -> 2373.00
16:31:49:697 -> 2398.00
16:31:49:697 -> 2443.00
16:31:49:697 -> 2458.00
16:31:49:697 -> 2429.00
16:31:49:697 -> 2411.00
16:31:49:697 -> 2462.00
16:31:49:697 -> 2469.00
16:31:49:697 -> 2488.00
16:31:49:697 -> 2464.00
16:31:49:697 -> 2489.00
16:31:49:697 -> 2473.00
16:31:49:697 -> 2465.00
16:31:49:697 -> 2465.00
16:31:49:697 -> 2488.00
16:31:49:697 -> 2441.00
16:31:49:697 -> 2429.00
16:31:49:697 -> 2376.00
16:31:49:697 -> 2513.00
16:31:49:710 -> 2467.00
16:31:49:710 -> 2458.00
16:31:49:710 -> 2468.00
16:31:49:710 -> 2429.00
16:31:49:710 -> 2429.00
16:31:49:710 -> 2459.00
16:31:49:710 -> 2477.00
16:31:49:710 -> 2500.00
16:31:49:710 -> 2484.00
16:31:49:710 -> 2477.00
16:31:49:710 -> 2467.00
16:31:49:741 -> 2437.00
16:31:49:741 -> 2435.00
16:31:49:741 -> 2432.00
16:31:49:741 -> 2413.00
16:31:49:741 -> 2448.00
16:31:49:741 -> 2427.00
16:31:49:741 -> 2434.00
16:31:49:741 -> 2419.00
16:31:49:741 -> 2453.00
16:31:49:741 -> 2456.00
16:31:49:741 -> 2441.00
16:31:49:741 -> 2474.00
16:31:49:741 -> 2479.00
16:31:49:741 -> 2458.00
16:31:49:741 -> 2458.00
16:31:49:741 -> 2460.00
16:31:49:741 -> 2460.00
16:31:49:741 -> 2449.00
16:31:49:741 -> 2453.00
16:31:49:741 -> 2410.00
16:31:49:741 -> 2387.00
16:31:49:741 -> 2499.00
16:31:49:741 -> 2463.00
16:31:49:741 -> 2431.00
16:31:49:741 -> 2441.00
16:31:49:741 -> 2431.00
16:31:49:751 -> 2444.00
16:31:49:751 -> 2469.00
16:31:49:751 -> 2491.00
16:31:49:751 -> 2471.00
16:31:49:751 -> 2459.00
16:31:49:751 -> 2471.00
16:31:49:751 -> 2481.00
16:31:49:751 -> 2471.00
16:31:49:752 -> 2463.00
16:31:49:753 -> 2436.00
16:31:49:754 -> 2439.00
16:31:49:755 -> 2407.00
16:31:49:756 -> 2460.00
16:31:49:757 -> 2441.00
16:31:49:759 -> 2448.00
16:31:49:760 -> 2427.00
16:31:49:761 -> 2464.00
16:31:49:762 -> 2451.00
16:31:49:763 -> 2446.00
16:31:49:765 -> 2440.00
16:31:49:766 -> 2462.00
16:31:49:767 -> 2494.00
16:31:49:768 -> 2476.00
16:31:49:770 -> 2463.00
16:31:49:771 -> 2443.00
16:31:49:772 -> 2420.00
16:31:49:773 -> 2397.00
16:31:49:774 -> 2433.00
16:31:49:775 -> 2449.00
16:31:49:777 -> 2456.00
16:31:49:778 -> 2446.00
16:31:49:780 -> 2467.00
16:31:49:780 -> 2465.00
16:31:49:781 -> 2483.00
16:31:49:782 -> 2478.00
16:31:49:784 -> 2445.00
16:31:49:785 -> 2504.00
16:31:49:786 -> 2483.00
16:31:49:788 -> 2482.00
16:31:49:790 -> 2482.00
16:31:49:792 -> 2492.00
16:31:49:792 -> 2478.00
16:31:49:796 -> 2510.00
16:31:49:796 -> 2495.00
16:31:49:796 -> 2436.00
16:31:49:796 -> 2413.00
16:31:49:797 -> 2427.00
16:31:49:798 -> 2419.00
16:31:49:799 -> 2437.00
16:31:49:800 -> 2443.00
16:31:49:802 -> 2426.00
16:31:49:803 -> 2426.00
16:31:49:804 -> 2446.00
16:31:49:805 -> 2478.00
16:31:49:806 -> 2488.00
16:31:49:808 -> 2463.00
16:31:49:813 -> 2474.00
16:31:49:813 -> 2448.00
16:31:49:813 -> 2466.00
16:31:49:813 -> 2460.00
16:31:49:822 -> 2429.00
16:31:49:822 -> 2399.00
16:31:49:822 -> 2374.00
16:31:49:822 -> 2398.00
16:31:49:822 -> 2435.00
16:31:49:822 -> 2424.00
16:31:49:822 -> 2445.00
16:31:49:832 -> 2454.00
16:31:49:832 -> 2450.00
16:31:49:832 -> 2464.00
16:31:49:832 -> 2509.00
16:31:49:832 -> 2456.00
16:31:49:832 -> 2474.00
16:31:49:832 -> 2479.00
16:31:49:832 -> 2480.00
16:31:49:832 -> 2465.00
16:31:49:837 -> 2468.00
16:31:49:837 -> 2436.00
16:31:49:837 -> 2400.00
16:31:49:837 -> 2409.00
16:31:49:849 -> 2447.00
16:31:49:849 -> 2457.00
16:31:49:849 -> 2483.00
16:31:49:849 -> 2459.00
16:31:49:849 -> 2432.00
16:31:49:849 -> 2451.00
16:31:49:858 -> 2464.00
16:31:49:858 -> 2502.00
16:31:49:858 -> 2476.00
16:31:49:858 -> 2464.00
16:31:49:858 -> 2471.00
16:31:49:858 -> 2456.00
16:31:49:858 -> 2456.00
16:31:49:858 -> 2474.00
16:31:49:858 -> 2447.00
16:31:49:858 -> 2404.00
16:31:49:858 -> 2391.00
16:31:49:858 -> 2421.00
16:31:49:865 -> 2437.00
16:31:49:865 -> 2446.00
16:31:49:865 -> 2454.00
16:31:49:865 -> 2450.00
16:31:49:865 -> 2494.00
16:31:49:865 -> 2504.00
16:31:49:867 -> 2507.00
16:31:49:867 -> 2471.00
16:31:49:869 -> 2500.00
16:31:49:869 -> 2480.00
16:31:49:871 -> 2471.00
16:31:49:875 -> 2547.00
16:31:49:875 -> 2465.00
16:31:49:875 -> 2406.00
16:31:49:884 -> 2388.00
16:31:49:884 -> 2411.00
16:31:49:884 -> 2419.00
16:31:49:884 -> 2444.00
16:31:49:884 -> 2446.00
16:31:49:884 -> 2447.00
16:31:49:884 -> 2429.00
16:31:49:884 -> 2427.00
16:31:49:895 -> 2457.00
16:31:49:895 -> 2423.00
16:31:49:895 -> 2484.00
16:31:49:895 -> 2470.00
16:31:49:901 -> 2464.00
16:31:49:901 -> 2469.00
16:31:49:901 -> 2455.00
16:31:49:901 -> 2451.00
16:31:49:901 -> 2413.00
16:31:49:901 -> 2441.00
16:31:49:901 -> 2448.00
16:31:49:901 -> 2442.00
16:31:49:901 -> 2454.00
16:31:49:901 -> 2456.00
16:31:49:907 -> 2415.00
16:31:49:907 -> 2455.00
16:31:49:907 -> 2454.00
16:31:49:907 -> 2470.00
16:31:49:907 -> 2490.00
16:31:49:910 -> 2484.00
16:31:49:910 -> 2476.00
16:31:49:911 -> 2478.00
16:31:49:911 -> 2451.00
16:31:49:921 -> 2442.00
16:31:49:921 -> 2447.00
16:31:49:921 -> 2462.00
16:31:49:921 -> 2451.00
16:31:49:921 -> 2464.00
16:31:49:921 -> 2448.00
16:31:49:921 -> 2455.00
16:31:49:925 -> 2440.00
16:31:49:925 -> 2466.00
16:31:49:925 -> 2457.00
16:31:49:925 -> 2527.00
16:31:49:925 -> 2475.00
16:31:49:938 -> 2501.00
16:31:49:938 -> 2470.00
16:31:49:938 -> 2459.00
16:31:49:938 -> 2447.00
16:31:49:938 -> 2469.00
16:31:49:938 -> 2459.00
16:31:49:938 -> 2444.00
16:31:49:938 -> 2439.00
16:31:49:938 -> 2431.00
16:31:49:938 -> 2443.00
16:31:49:942 -> 2445.00
16:31:49:942 -> 2468.00
16:31:49:942 -> 2459.00
16:31:49:948 -> 2446.00
16:31:49:948 -> 2473.00
16:31:49:948 -> 2463.00
16:31:49:948 -> 2512.00
16:31:49:948 -> 2475.00
16:31:49:951 -> 2483.00
16:31:49:951 -> 2473.00
16:31:49:951 -> 2473.00
16:31:49:952 -> 2443.00
16:31:49:953 -> 2458.00
16:31:49:954 -> 2420.00
16:31:49:955 -> 2446.00
16:31:49:956 -> 2472.00
16:31:49:957 -> 2436.00
16:31:49:959 -> 2440.00
16:31:49:960 -> 2398.00
16:31:49:961 -> 2456.00
16:31:49:965 -> 2469.00
16:31:49:965 -> 2483.00
16:31:49:965 -> 2493.00
16:31:49:967 -> 2488.00
16:31:49:967 -> 2475.00
16:31:49:969 -> 2493.00
16:31:49:971 -> 2439.00
16:31:49:971 -> 2483.00
16:31:49:980 -> 2457.00
16:31:49:980 -> 2446.00
16:31:49:980 -> 2396.00
16:31:49:980 -> 2392.00
16:31:49:980 -> 2416.00
16:31:49:980 -> 2433.00
16:31:49:980 -> 2452.00
16:31:49:980 -> 2443.00
16:31:49:986 -> 2476.00
16:31:49:986 -> 2452.00
16:31:49:986 -> 2413.00
16:31:49:986 -> 2447.00
16:31:49:989 -> 2457.00
16:31:49:989 -> 2489.00
16:31:49:989 -> 2471.00
16:31:49:989 -> 2472.00
16:31:49:991 -> 2445.00
16:31:50:001 -> 2490.00
16:31:50:001 -> 2425.00
16:31:50:001 -> 2456.00
16:31:50:001 -> 2395.00
16:31:50:001 -> 2441.00
16:31:50:001 -> 2456.00
16:31:50:001 -> 2453.00
16:31:50:001 -> 2465.00
16:31:50:004 -> 2478.00
16:31:50:004 -> 2420.00
16:31:50:006 -> 2460.00
16:31:50:006 -> 2491.00
16:31:50:006 -> 2497.00
16:31:50:010 -> 2475.00
16:31:50:010 -> 2477.00
16:31:50:012 -> 2475.00
16:31:50:012 -> 2456.00
16:31:50:018 -> 2451.00
16:31:50:018 -> 2440.00
16:31:50:018 -> 2439.00
16:31:50:018 -> 2443.00
16:31:50:018 -> 2444.00
16:31:50:018 -> 2447.00
16:31:50:022 -> 2448.00
16:31:50:022 -> 2463.00
16:31:50:025 -> 2430.00
16:31:50:025 -> 2463.00
16:31:50:025 -> 2485.00
16:31:50:026 -> 2519.00
16:31:50:026 -> 2465.00
16:31:50:028 -> 2473.00
16:31:50:030 -> 2464.00
16:31:50:031 -> 2477.00
16:31:50:033 -> 2464.00
16:31:50:033 -> 2474.00
16:31:50:040 -> 2458.00
16:31:50:040 -> 2407.00
16:31:50:040 -> 2388.00
16:31:50:040 -> 2451.00
16:31:50:040 -> 2450.00
16:31:50:040 -> 2466.00
16:31:50:041 -> 2450.00
16:31:50:042 -> 2438.00
16:31:50:043 -> 2480.00
16:31:50:045 -> 2465.00
16:31:50:047 -> 2491.00
16:31:50:047 -> 2493.00
16:31:50:080 -> 2471.00
16:31:50:080 -> 2464.00
16:31:50:080 -> 2453.00
16:31:50:080 -> 2476.00
16:31:50:080 -> 2453.00
16:31:50:093 -> 2417.00
16:31:50:093 -> 2392.00
16:31:50:093 -> 2430.00
16:31:50:093 -> 2427.00
16:31:50:093 -> 2432.00
16:31:50:093 -> 2427.00
16:31:50:093 -> 2408.00
16:31:50:093 -> 2431.00
16:31:50:093 -> 2445.00
16:31:50:093 -> 2459.00
16:31:50:093 -> 2477.00
16:31:50:093 -> 2463.00
16:31:50:093 -> 2441.00
16:31:50:093 -> 2445.00
16:31:50:093 -> 2440.00
16:31:50:093 -> 2446.00
16:31:50:093 -> 2442.00
16:31:50:093 -> 2467.00
16:31:50:093 -> 2493.00
16:31:50:093 -> 2456.00
16:31:50:093 -> 2442.00
16:31:50:093 -> 2446.00
16:31:50:093 -> 2408.00
16:31:50:093 -> 2434.00
16:31:50:093 -> 2519.00
16:31:50:093 -> 2466.00
16:31:50:093 -> 2434.00
16:31:50:093 -> 2399.00
16:31:50:093 -> 2418.00
16:31:50:093 -> 2459.00
16:31:50:093 -> 2482.00
16:31:50:093 -> 2467.00
16:31:50:093 -> 2501.00
16:31:50:093 -> 2457.00
16:31:50:114 -> 2410.00
16:31:50:114 -> 2392.00
16:31:50:114 -> 2429.00
16:31:50:114 -> 2440.00
16:31:50:114 -> 2438.00
16:31:50:114 -> 2445.00
16:31:50:114 -> 2509.00
16:31:50:114 -> 2425.00
16:31:50:114 -> 2477.00
16:31:50:114 -> 2451.00
16:31:50:114 -> 2520.00
16:31:50:114 -> 2471.00
16:31:50:114 -> 2490.00
16:31:50:114 -> 2481.00
16:31:50:114 -> 2478.00
16:31:50:114 -> 2481.00
16:31:50:114 -> 2444.00
16:31:50:116 -> 2409.00
16:31:50:116 -> 2438.00
16:31:50:117 -> 2427.00
16:31:50:118 -> 2434.00
16:31:50:119 -> 2444.00
16:31:50:120 -> 2438.00
16:31:50:122 -> 2425.00
16:31:50:123 -> 2431.00
16:31:50:124 -> 2447.00
16:31:50:125 -> 2424.00
16:31:50:127 -> 2451.00
16:31:50:128 -> 2481.00
16:31:50:131 -> 2498.00
16:31:50:131 -> 2497.00
16:31:50:132 -> 2492.00
16:31:50:133 -> 2451.00
16:31:50:141 -> 2445.00
16:31:50:141 -> 2454.00
16:31:50:141 -> 2416.00
16:31:50:141 -> 2453.00
16:31:50:141 -> 2460.00
16:31:50:141 -> 2457.00
16:31:50:141 -> 2462.00
16:31:50:156 -> 2461.00
16:31:50:156 -> 2488.00
16:31:50:156 -> 2474.00
16:31:50:156 -> 2465.00
16:31:50:156 -> 2457.00
16:31:50:156 -> 2484.00
16:31:50:156 -> 2464.00
16:31:50:156 -> 2449.00
16:31:50:156 -> 2478.00
16:31:50:156 -> 2437.00
16:31:50:156 -> 2421.00
16:31:50:156 -> 2392.00
16:31:50:161 -> 2465.00
16:31:50:161 -> 2445.00
16:31:50:161 -> 2455.00
16:31:50:177 -> 2431.00
16:31:50:177 -> 2457.00
16:31:50:177 -> 2454.00
16:31:50:177 -> 2456.00
16:31:50:177 -> 2481.00
16:31:50:177 -> 2488.00
16:31:50:177 -> 2473.00
16:31:50:177 -> 2466.00
16:31:50:189 -> 2465.00
16:31:50:189 -> 2479.00
16:31:50:189 -> 2446.00
16:31:50:189 -> 2449.00
16:31:50:189 -> 2434.00
16:31:50:189 -> 2395.00
16:31:50:189 -> 2446.00
16:31:50:189 -> 2434.00
16:31:50:189 -> 2444.00
16:31:50:189 -> 2450.00
16:31:50:189 -> 2463.00
16:31:50:189 -> 2443.00
16:31:50:189 -> 2511.00
16:31:50:189 -> 2489.00
16:31:50:194 -> 2493.00
16:31:50:194 -> 2480.00
16:31:50:194 -> 2497.00
16:31:50:194 -> 2467.00
16:31:50:194 -> 2467.00
16:31:50:194 -> 2430.00
16:31:50:194 -> 2425.00
16:31:50:199 -> 2431.00
16:31:50:199 -> 2425.00
16:31:50:199 -> 2422.00
16:31:50:199 -> 2433.00
16:31:50:211 -> 2447.00
16:31:50:211 -> 2449.00
16:31:50:211 -> 2432.00
16:31:50:211 -> 2427.00
16:31:50:211 -> 2447.00
16:31:50:211 -> 2470.00
16:31:50:211 -> 2491.00
16:31:50:211 -> 2459.00
16:31:50:211 -> 2465.00
16:31:50:211 -> 2467.00
16:31:50:211 -> 2462.00
16:31:50:214 -> 2453.00
16:31:50:214 -> 2448.00
16:31:50:218 -> 2421.00
16:31:50:218 -> 2436.00
16:31:50:218 -> 2431.00
16:31:50:224 -> 2438.00
16:31:50:224 -> 2449.00
16:31:50:224 -> 2456.00
16:31:50:224 -> 2444.00
16:31:50:224 -> 2474.00
16:31:50:226 -> 2470.00
16:31:50:226 -> 2482.00
16:31:50:227 -> 2428.00
16:31:50:229 -> 2469.00
16:31:50:229 -> 2477.00
16:31:50:233 -> 2479.00
16:31:50:233 -> 2476.00
16:31:50:233 -> 2479.00
16:31:50:249 -> 2441.00
16:31:50:249 -> 2385.00
16:31:50:249 -> 2401.00
16:31:50:249 -> 2422.00
16:31:50:249 -> 2431.00
16:31:50:249 -> 2439.00
16:31:50:249 -> 2443.00
16:31:50:249 -> 2443.00
16:31:50:249 -> 2400.00
16:31:50:249 -> 2470.00
16:31:50:249 -> 2486.00
16:31:50:249 -> 2467.00
16:31:50:249 -> 2473.00
16:31:50:253 -> 2470.00
16:31:50:253 -> 2493.00
16:31:50:253 -> 2470.00
16:31:50:253 -> 2467.00
16:31:50:255 -> 2433.00
16:31:50:255 -> 2413.00
16:31:50:266 -> 2438.00
16:31:50:266 -> 2431.00
16:31:50:266 -> 2450.00
16:31:50:266 -> 2425.00
16:31:50:266 -> 2451.00
16:31:50:266 -> 2424.00
16:31:50:266 -> 2453.00
16:31:50:266 -> 2455.00
16:31:50:266 -> 2499.00
16:31:50:277 -> 2478.00
16:31:50:277 -> 2479.00
16:31:50:277 -> 2471.00
16:31:50:277 -> 2450.00
16:31:50:277 -> 2470.00
16:31:50:277 -> 2440.00
16:31:50:277 -> 2439.00
16:31:50:277 -> 2418.00
16:31:50:277 -> 2409.00
16:31:50:302 -> 2430.00
16:31:50:302 -> 2447.00
16:31:50:302 -> 2451.00
16:31:50:302 -> 2476.00
16:31:50:302 -> 2443.00
16:31:50:302 -> 2461.00
16:31:50:302 -> 2434.00
16:31:50:302 -> 2454.00
16:31:50:302 -> 2475.00
16:31:50:302 -> 2475.00
16:31:50:302 -> 2464.00
16:31:50:302 -> 2408.00
16:31:50:302 -> 2435.00
16:31:50:302 -> 2405.00
16:31:50:302 -> 2372.00
16:31:50:302 -> 2376.00
16:31:50:302 -> 2398.00
16:31:50:302 -> 2415.00
16:31:50:302 -> 2449.00
16:31:50:302 -> 2446.00
16:31:50:302 -> 2424.00
16:31:50:308 -> 2461.00
16:31:50:308 -> 2491.00
16:31:50:308 -> 2523.00
16:31:50:308 -> 2518.00
16:31:50:308 -> 2484.00
16:31:50:319 -> 2488.00
16:31:50:319 -> 2470.00
16:31:50:319 -> 2464.00
16:31:50:319 -> 2430.00
16:31:50:319 -> 2443.00
16:31:50:319 -> 2390.00
16:31:50:319 -> 2380.00
16:31:50:319 -> 2412.00
16:31:50:319 -> 2378.00
16:31:50:319 -> 2462.00
16:31:50:341 -> 2461.00
16:31:50:341 -> 2448.00
16:31:50:341 -> 2462.00
16:31:50:341 -> 2437.00
16:31:50:341 -> 2455.00
16:31:50:341 -> 2491.00
16:31:50:341 -> 2481.00
16:31:50:341 -> 2481.00
16:31:50:341 -> 2472.00
16:31:50:341 -> 2462.00
16:31:50:341 -> 2442.00
16:31:50:341 -> 2443.00
16:31:50:341 -> 2440.00
16:31:50:341 -> 2435.00
16:31:50:341 -> 2429.00
16:31:50:341 -> 2432.00
16:31:50:341 -> 2432.00
16:31:50:341 -> 2437.00
16:31:50:352 -> 2434.00
16:31:50:352 -> 2442.00
16:31:50:352 -> 2430.00
16:31:50:352 -> 2435.00
16:31:50:352 -> 2452.00
16:31:50:352 -> 2471.00
16:31:50:352 -> 2460.00
16:31:50:352 -> 2451.00
16:31:50:352 -> 2447.00
16:31:50:367 -> 2426.00
16:31:50:367 -> 2394.00
16:31:50:367 -> 2358.00
16:31:50:367 -> 2348.00
16:31:50:367 -> 2424.00
16:31:50:367 -> 2429.00
16:31:50:367 -> 2425.00
16:31:50:367 -> 2439.00
16:31:50:367 -> 2420.00
16:31:50:367 -> 2416.00
16:31:50:367 -> 2479.00
16:31:50:367 -> 2463.00
16:31:50:367 -> 2484.00
16:31:50:385 -> 2429.00
16:31:50:385 -> 2472.00
16:31:50:385 -> 2456.00
16:31:50:385 -> 2436.00
16:31:50:385 -> 2426.00
16:31:50:385 -> 2396.00
16:31:50:385 -> 2384.00
16:31:50:385 -> 2462.00
16:31:50:385 -> 2446.00
16:31:50:385 -> 2465.00
16:31:50:385 -> 2469.00
16:31:50:385 -> 2493.00
16:31:50:385 -> 2449.00
16:31:50:385 -> 2458.00
16:31:50:385 -> 2470.00
16:31:50:392 -> 2493.00
16:31:50:392 -> 2479.00
16:31:50:392 -> 2454.00
16:31:50:392 -> 2460.00
16:31:50:392 -> 2459.00
16:31:50:392 -> 2448.00
16:31:50:401 -> 2444.00
16:31:50:401 -> 2417.00
16:31:50:401 -> 2397.00
16:31:50:401 -> 2428.00
16:31:50:401 -> 2434.00
16:31:50:401 -> 2445.00
16:31:50:401 -> 2441.00
16:31:50:431 -> 2455.00
16:31:50:431 -> 2438.00
16:31:50:431 -> 2439.00
16:31:50:431 -> 2496.00
16:31:50:431 -> 2506.00
16:31:50:431 -> 2438.00
16:31:50:431 -> 2468.00
16:31:50:431 -> 2469.00
16:31:50:431 -> 2454.00
16:31:50:431 -> 2460.00
16:31:50:431 -> 2425.00
16:31:50:431 -> 2422.00
16:31:50:431 -> 2431.00
16:31:50:431 -> 2422.00
16:31:50:431 -> 2426.00
16:31:50:431 -> 2429.00
16:31:50:431 -> 2429.00
16:31:50:431 -> 2445.00
16:31:50:431 -> 2459.00
16:31:50:431 -> 2446.00
16:31:50:431 -> 2498.00
16:31:50:431 -> 2459.00
16:31:50:431 -> 2469.00
16:31:50:431 -> 2448.00
16:31:50:431 -> 2437.00
16:31:50:445 -> 2447.00
16:31:50:445 -> 2449.00
16:31:50:445 -> 2433.00
16:31:50:445 -> 2395.00
16:31:50:445 -> 2370.00
16:31:50:445 -> 2402.00
16:31:50:465 -> 2391.00
16:31:50:465 -> 2424.00
16:31:50:465 -> 2423.00
16:31:50:465 -> 2443.00
16:31:50:465 -> 2394.00
16:31:50:465 -> 2472.00
16:31:50:465 -> 2433.00
16:31:50:465 -> 2401.00
16:31:50:465 -> 2428.00
16:31:50:465 -> 2414.00
16:31:50:465 -> 2403.00
16:31:50:465 -> 2436.00
16:31:50:465 -> 2437.00
16:31:50:465 -> 2408.00
16:31:50:465 -> 2375.00
16:31:50:465 -> 2387.00
16:31:50:465 -> 2419.00
16:31:50:465 -> 2437.00
16:31:50:465 -> 2390.00
16:31:50:465 -> 2428.00
16:31:50:465 -> 2448.00
16:31:50:465 -> 2423.00
16:31:50:465 -> 2454.00
16:31:50:480 -> 2436.00
16:31:50:480 -> 2465.00
16:31:50:480 -> 2474.00
16:31:50:480 -> 2488.00
16:31:50:480 -> 2461.00
16:31:50:480 -> 2470.00
16:31:50:480 -> 2451.00
16:31:50:480 -> 2440.00
16:31:50:480 -> 2429.00
16:31:50:480 -> 2415.00
16:31:50:480 -> 2430.00
16:31:50:480 -> 2447.00
16:31:50:530 -> 2450.00
16:31:50:530 -> 2434.00
16:31:50:530 -> 2440.00
16:31:50:530 -> 2430.00
16:31:50:530 -> 2418.00
16:31:50:530 -> 2450.00
16:31:50:530 -> 2477.00
16:31:50:530 -> 2473.00
16:31:50:530 -> 2461.00
16:31:50:530 -> 2460.00
16:31:50:530 -> 2433.00
16:31:50:530 -> 2405.00
16:31:50:530 -> 2415.00
16:31:50:530 -> 2417.00
16:31:50:530 -> 2431.00
16:31:50:530 -> 2435.00
16:31:50:530 -> 2435.00
16:31:50:530 -> 2444.00
16:31:50:530 -> 2403.00
16:31:50:530 -> 2448.00
16:31:50:530 -> 2420.00
16:31:50:530 -> 2467.00
16:31:50:530 -> 2486.00
16:31:50:530 -> 2475.00
16:31:50:530 -> 2473.00
16:31:50:530 -> 2451.00
16:31:50:530 -> 2430.00
16:31:50:530 -> 2449.00
16:31:50:530 -> 2454.00
16:31:50:530 -> 2417.00
16:31:50:530 -> 2422.00
16:31:50:530 -> 2411.00
16:31:50:530 -> 2402.00
16:31:50:530 -> 2431.00
16:31:50:530 -> 2431.00
16:31:50:530 -> 2450.00
16:31:50:530 -> 2430.00
16:31:50:530 -> 2420.00
16:31:50:530 -> 2427.00
16:31:50:530 -> 2442.00
16:31:50:530 -> 2440.00
16:31:50:530 -> 2433.00
16:31:50:572 -> 2448.00
16:31:50:572 -> 2452.00
16:31:50:572 -> 2410.00
16:31:50:572 -> 2417.00
16:31:50:572 -> 2378.00
16:31:50:572 -> 2381.00
16:31:50:572 -> 2396.00
16:31:50:572 -> 2423.00
16:31:50:572 -> 2446.00
16:31:50:572 -> 2450.00
16:31:50:572 -> 2431.00
16:31:50:572 -> 2461.00
16:31:50:572 -> 2435.00
16:31:50:572 -> 2426.00
16:31:50:572 -> 2464.00
16:31:50:572 -> 2448.00
16:31:50:572 -> 2451.00
16:31:50:572 -> 2440.00
16:31:50:572 -> 2417.00
16:31:50:572 -> 2441.00
16:31:50:572 -> 2422.00
16:31:50:572 -> 2417.00
16:31:50:572 -> 2449.00
16:31:50:572 -> 2435.00
16:31:50:572 -> 2441.00
16:31:50:572 -> 2416.00
16:31:50:572 -> 2448.00
16:31:50:572 -> 2401.00
16:31:50:572 -> 2395.00
16:31:50:572 -> 2423.00
16:31:50:572 -> 2424.00
16:31:50:572 -> 2410.00
16:31:50:572 -> 2410.00
16:31:50:572 -> 2449.00
16:31:50:572 -> 2463.00
16:31:50:572 -> 2435.00
16:31:50:650 -> 2438.00
16:31:50:650 -> 2449.00
16:31:50:650 -> 2418.00
16:31:50:650 -> 2433.00
16:31:50:650 -> 2422.00
16:31:50:650 -> 2429.00
16:31:50:650 -> 2433.00
16:31:50:650 -> 2439.00
16:31:50:650 -> 2413.00
16:31:50:650 -> 2429.00
16:31:50:650 -> 2433.00
16:31:50:650 -> 2431.00
16:31:50:650 -> 2438.00
16:31:50:650 -> 2439.00
16:31:50:650 -> 2440.00
16:31:50:650 -> 2429.00
16:31:50:650 -> 2413.00
16:31:50:650 -> 2411.00
16:31:50:650 -> 2369.00
16:31:50:650 -> 2421.00
16:31:50:650 -> 2440.00
16:31:50:650 -> 2408.00
16:31:50:650 -> 2435.00
16:31:50:650 -> 2444.00
16:31:50:650 -> 2411.00
16:31:50:650 -> 2450.00
16:31:50:650 -> 2449.00
16:31:50:650 -> 2468.00
16:31:50:650 -> 2488.00
16:31:50:650 -> 2472.00
16:31:50:650 -> 2463.00
16:31:50:650 -> 2444.00
16:31:50:650 -> 2435.00
16:31:50:672 -> 2416.00
16:31:50:672 -> 2417.00
16:31:50:672 -> 2418.00
16:31:50:672 -> 2386.00
16:31:50:672 -> 2433.00
16:31:50:672 -> 2421.00
16:31:50:672 -> 2430.00
16:31:50:672 -> 2443.00
16:31:50:672 -> 2450.00
16:31:50:672 -> 2446.00
16:31:50:672 -> 2451.00
16:31:50:672 -> 2466.00
16:31:50:672 -> 2426.00
16:31:50:672 -> 2444.00
16:31:50:672 -> 2453.00
16:31:50:672 -> 2443.00
16:31:50:672 -> 2447.00
16:31:50:672 -> 2424.00
16:31:50:672 -> 2420.00
16:31:50:672 -> 2402.00
16:31:50:672 -> 2439.00
16:31:50:672 -> 2436.00
16:31:50:672 -> 2411.00
16:31:50:672 -> 2414.00
16:31:50:672 -> 2431.00
16:31:50:672 -> 2408.00
16:31:50:672 -> 2392.00
16:31:50:672 -> 2424.00
16:31:50:672 -> 2449.00
16:31:50:672 -> 2469.00
16:31:50:672 -> 2438.00
16:31:50:672 -> 2463.00
16:31:50:672 -> 2461.00
16:31:50:672 -> 2433.00
16:31:50:672 -> 2428.00
16:31:50:672 -> 2437.00
16:31:50:672 -> 2402.00
16:31:50:672 -> 2435.00
16:31:50:672 -> 2408.00
16:31:50:672 -> 2423.00
16:31:50:672 -> 2374.00
16:31:50:672 -> 2387.00
16:31:50:672 -> 2405.00
16:31:50:672 -> 2414.00
16:31:50:672 -> 2446.00
16:31:50:672 -> 2490.00
16:31:50:672 -> 2469.00
16:31:50:672 -> 2461.00
16:31:50:672 -> 2441.00
16:31:50:672 -> 2431.00
16:31:50:672 -> 2423.00
16:31:50:685 -> 2427.00
16:31:50:685 -> 2424.00
16:31:50:685 -> 2419.00
16:31:50:685 -> 2423.00
16:31:50:685 -> 2379.00
16:31:50:685 -> 2405.00
16:31:50:685 -> 2415.00
16:31:50:685 -> 2428.00
16:31:50:685 -> 2418.00
16:31:50:685 -> 2444.00
16:31:50:685 -> 2422.00
16:31:50:689 -> 2415.00
16:31:50:689 -> 2431.00
16:31:50:689 -> 2473.00
16:31:50:690 -> 2449.00
16:31:50:695 -> 2458.00
16:31:50:695 -> 2459.00
16:31:50:695 -> 2448.00
16:31:50:695 -> 2407.00
16:31:50:703 -> 2389.00
16:31:50:703 -> 2370.00
16:31:50:703 -> 2422.00
16:31:50:703 -> 2435.00
16:31:50:703 -> 2438.00
16:31:50:703 -> 2430.00
16:31:50:703 -> 2445.00
16:31:50:705 -> 2431.00
16:31:50:705 -> 2456.00
16:31:50:710 -> 2420.00
16:31:50:710 -> 2457.00
16:31:50:710 -> 2431.00
16:31:50:710 -> 2436.00
16:31:50:731 -> 2436.00
16:31:50:731 -> 2429.00
16:31:50:731 -> 2443.00
16:31:50:731 -> 2407.00
16:31:50:731 -> 2378.00
16:31:50:731 -> 2418.00
16:31:50:731 -> 2395.00
16:31:50:731 -> 2415.00
16:31:50:731 -> 2401.00
16:31:50:731 -> 2394.00
16:31:50:731 -> 2433.00
16:31:50:731 -> 2433.00
16:31:50:731 -> 2465.00
16:31:50:731 -> 2483.00
16:31:50:731 -> 2486.00
16:31:50:731 -> 2466.00
16:31:50:731 -> 2453.00
16:31:50:731 -> 2465.00
16:31:50:747 -> 2436.00
16:31:50:747 -> 2412.00
16:31:50:747 -> 2393.00
16:31:50:747 -> 2387.00
16:31:50:747 -> 2412.00
16:31:50:747 -> 2405.00
16:31:50:747 -> 2380.00
16:31:50:747 -> 2409.00
16:31:50:747 -> 2393.00
16:31:50:747 -> 2414.00
16:31:50:747 -> 2432.00
16:31:50:747 -> 2529.00
16:31:50:747 -> 2457.00
16:31:50:750 -> 2439.00
16:31:50:750 -> 2455.00
16:31:50:750 -> 2466.00
16:31:50:754 -> 2433.00
16:31:50:754 -> 2436.00
16:31:50:754 -> 2427.00
16:31:50:769 -> 2398.00
16:31:50:769 -> 2364.00
16:31:50:769 -> 2415.00
16:31:50:769 -> 2424.00
16:31:50:769 -> 2427.00
16:31:50:769 -> 2423.00
16:31:50:769 -> 2429.00
16:31:50:769 -> 2444.00
16:31:50:769 -> 2445.00
16:31:50:769 -> 2412.00
16:31:50:769 -> 2457.00
16:31:50:769 -> 2437.00
16:31:50:786 -> 2462.00
16:31:50:786 -> 2444.00
16:31:50:786 -> 2441.00
16:31:50:786 -> 2425.00
16:31:50:786 -> 2427.00
16:31:50:786 -> 2366.00
16:31:50:786 -> 2366.00
16:31:50:786 -> 2415.00
16:31:50:786 -> 2431.00
16:31:50:786 -> 2427.00
16:31:50:786 -> 2418.00
16:31:50:786 -> 2447.00
16:31:50:786 -> 2411.00
16:31:50:786 -> 2439.00
16:31:50:786 -> 2460.00
16:31:50:800 -> 2446.00
16:31:50:800 -> 2446.00
16:31:50:800 -> 2434.00
16:31:50:800 -> 2442.00
16:31:50:800 -> 2417.00
16:31:50:800 -> 2439.00
16:31:50:800 -> 2420.00
16:31:50:800 -> 2432.00
16:31:50:800 -> 2416.00
16:31:50:800 -> 2435.00
16:31:50:800 -> 2417.00
16:31:50:808 -> 2430.00
16:31:50:808 -> 2427.00
16:31:50:808 -> 2454.00
16:31:50:808 -> 2442.00
16:31:50:808 -> 2463.00
16:31:50:808 -> 2441.00
16:31:50:808 -> 2460.00
16:31:50:808 -> 2468.00
16:31:50:815 -> 2439.00
16:31:50:815 -> 2427.00
16:31:50:815 -> 2443.00
16:31:50:815 -> 2418.00
16:31:50:815 -> 2383.00
16:31:50:823 -> 2365.00
16:31:50:823 -> 2392.00
16:31:50:823 -> 2418.00
16:31:50:823 -> 2412.00
16:31:50:823 -> 2414.00
16:31:50:823 -> 2353.00
16:31:50:823 -> 2399.00
16:31:50:854 -> 2386.00
16:31:50:854 -> 2417.00
16:31:50:854 -> 2467.00
16:31:50:854 -> 2480.00
16:31:50:854 -> 2455.00
16:31:50:854 -> 2433.00
16:31:50:854 -> 2442.00
16:31:50:854 -> 2432.00
16:31:50:854 -> 2439.00
16:31:50:854 -> 2393.00
16:31:50:854 -> 2363.00
16:31:50:854 -> 2403.00
16:31:50:854 -> 2422.00
16:31:50:854 -> 2364.00
16:31:50:854 -> 2439.00
16:31:50:854 -> 2441.00
16:31:50:854 -> 2471.00
16:31:50:854 -> 2460.00
16:31:50:854 -> 2449.00
16:31:50:878 -> 2408.00
16:31:50:878 -> 2452.00
16:31:50:878 -> 2464.00
16:31:50:878 -> 2436.00
16:31:50:878 -> 2445.00
16:31:50:878 -> 2415.00
16:31:50:878 -> 2413.00
16:31:50:878 -> 2408.00
16:31:50:878 -> 2420.00
16:31:50:878 -> 2400.00
16:31:50:878 -> 2418.00
16:31:50:878 -> 2436.00
16:31:50:878 -> 2418.00
16:31:50:878 -> 2413.00
16:31:50:878 -> 2405.00
16:31:50:878 -> 2436.00
16:31:50:878 -> 2475.00
16:31:50:878 -> 2466.00
16:31:50:878 -> 2451.00
16:31:50:878 -> 2446.00
16:31:50:878 -> 2436.00
16:31:50:878 -> 2432.00
16:31:50:878 -> 2429.00
16:31:50:878 -> 2374.00
16:31:50:878 -> 2420.00
16:31:50:878 -> 2426.00
16:31:50:878 -> 2423.00
16:31:50:884 -> 2418.00
16:31:50:884 -> 2428.00
16:31:50:884 -> 2435.00
16:31:50:884 -> 2440.00
16:31:50:884 -> 2436.00
16:31:50:886 -> 2431.00
16:31:50:886 -> 2421.00
16:31:50:905 -> 2451.00
16:31:50:905 -> 2438.00
16:31:50:905 -> 2439.00
16:31:50:905 -> 2454.00
16:31:50:905 -> 2426.00
16:31:50:905 -> 2402.00
16:31:50:905 -> 2428.00
16:31:50:905 -> 2411.00
16:31:50:905 -> 2411.00
16:31:50:905 -> 2408.00
16:31:50:905 -> 2415.00
16:31:50:905 -> 2421.00
16:31:50:905 -> 2438.00
16:31:50:905 -> 2433.00
16:31:50:905 -> 2440.00
16:31:50:905 -> 2445.00
16:31:50:908 -> 2448.00
16:31:50:908 -> 2452.00
16:31:50:908 -> 2447.00
16:31:50:919 -> 2447.00
16:31:50:919 -> 2443.00
16:31:50:919 -> 2432.00
16:31:50:919 -> 2400.00
16:31:50:919 -> 2400.00
16:31:50:919 -> 2441.00
16:31:50:919 -> 2417.00
16:31:50:919 -> 2390.00
16:31:50:919 -> 2409.00
16:31:50:926 -> 2431.00
16:31:50:926 -> 2426.00
16:31:50:926 -> 2449.00
16:31:50:926 -> 2444.00
16:31:50:926 -> 2443.00
16:31:50:936 -> 2456.00
16:31:50:936 -> 2428.00
16:31:50:936 -> 2434.00
16:31:50:936 -> 2405.00
16:31:50:936 -> 2390.00
16:31:50:936 -> 2432.00
16:31:50:936 -> 2414.00
16:31:50:936 -> 2376.00
16:31:50:936 -> 2362.00
16:31:50:938 -> 2369.00
16:31:50:938 -> 2421.00
16:31:50:941 -> 2395.00
16:31:50:941 -> 2396.00
16:31:50:946 -> 2415.00
16:31:50:946 -> 2403.00
16:31:50:946 -> 2404.00
16:31:50:946 -> 2475.00
16:31:50:946 -> 2480.00
16:31:50:948 -> 2459.00
16:31:50:960 -> 2457.00
16:31:50:960 -> 2445.00
16:31:50:960 -> 2464.00
16:31:50:960 -> 2361.00
16:31:50:960 -> 2431.00
16:31:50:960 -> 2415.00
16:31:50:960 -> 2443.00
16:31:50:960 -> 2422.00
16:31:50:960 -> 2423.00
16:31:50:960 -> 2434.00
16:31:50:960 -> 2413.00
16:31:50:962 -> 2413.00
16:31:50:963 -> 2426.00
16:31:50:964 -> 2399.00
16:31:50:965 -> 2407.00
16:31:50:966 -> 2418.00
16:31:50:968 -> 2437.00
16:31:50:969 -> 2435.00
16:31:50:970 -> 2443.00
16:31:50:971 -> 2432.00
16:31:50:972 -> 2429.00
16:31:50:973 -> 2409.00
16:31:50:975 -> 2411.00
16:31:50:976 -> 2372.00
16:31:50:977 -> 2384.00
16:31:50:978 -> 2417.00
16:31:50:982 -> 2416.00
16:31:50:982 -> 2417.00
16:31:50:982 -> 2436.00
16:31:50:998 -> 2392.00
16:31:50:998 -> 2432.00
16:31:50:998 -> 2418.00
16:31:50:998 -> 2462.00
16:31:50:998 -> 2397.00
16:31:50:998 -> 2449.00
16:31:50:998 -> 2439.00
16:31:50:998 -> 2444.00
16:31:50:998 -> 2404.00
16:31:50:998 -> 2409.00
16:31:50:998 -> 2365.00
16:31:50:998 -> 2348.00
16:31:50:998 -> 2374.00
16:31:51:001 -> 2409.00
16:31:51:001 -> 2422.00
16:31:51:009 -> 2410.00
16:31:51:009 -> 2436.00
16:31:51:009 -> 2423.00
16:31:51:009 -> 2441.00
16:31:51:009 -> 2396.00
16:31:51:009 -> 2411.00
16:31:51:009 -> 2452.00
16:31:51:009 -> 2446.00
16:31:51:011 -> 2435.00
16:31:51:011 -> 2414.00
16:31:51:024 -> 2415.00
16:31:51:024 -> 2387.00
16:31:51:024 -> 2357.00
16:31:51:024 -> 2364.00
16:31:51:024 -> 2409.00
16:31:51:024 -> 2433.00
16:31:51:024 -> 2426.00
16:31:51:024 -> 2400.00
16:31:51:024 -> 2394.00
16:31:51:024 -> 2415.00
16:31:51:026 -> 2484.00
16:31:51:026 -> 2460.00
16:31:51:027 -> 2430.00
16:31:51:030 -> 2447.00
16:31:51:030 -> 2438.00
16:31:51:031 -> 2421.00
16:31:51:032 -> 2423.00
16:31:51:033 -> 2423.00
16:31:51:034 -> 2395.00
16:31:51:035 -> 2378.00
16:31:51:036 -> 2401.00
16:31:51:038 -> 2370.00
16:31:51:039 -> 2398.00
16:31:51:040 -> 2429.00
16:31:51:041 -> 2415.00
16:31:51:043 -> 2427.00
16:31:51:044 -> 2433.00
16:31:51:045 -> 2405.00
16:31:51:046 -> 2430.00
16:31:51:047 -> 2420.00
16:31:51:048 -> 2433.00
16:31:51:050 -> 2409.00
16:31:51:051 -> 2417.00
16:31:51:052 -> 2393.00
16:31:51:053 -> 2386.00
16:31:51:054 -> 2375.00
16:31:51:055 -> 2413.00
16:31:51:057 -> 2418.00
16:31:51:058 -> 2429.00
16:31:51:059 -> 2452.00
16:31:51:060 -> 2405.00
16:31:51:061 -> 2400.00
16:31:51:063 -> 2439.00
16:31:51:073 -> 2432.00
16:31:51:073 -> 2419.00
16:31:51:073 -> 2425.00
16:31:51:073 -> 2455.00
16:31:51:073 -> 2448.00
16:31:51:073 -> 2433.00
16:31:51:073 -> 2432.00
16:31:51:075 -> 2419.00
16:31:51:075 -> 2415.00
16:31:51:075 -> 2350.00
16:31:51:076 -> 2337.00
16:31:51:079 -> 2344.00
16:31:51:079 -> 2400.00
16:31:51:091 -> 2415.00
16:31:51:091 -> 2427.00
16:31:51:091 -> 2413.00
16:31:51:091 -> 2396.00
16:31:51:091 -> 2423.00
16:31:51:091 -> 2420.00
16:31:51:091 -> 2431.00
16:31:51:091 -> 2437.00
16:31:51:091 -> 2434.00
16:31:51:091 -> 2429.00
16:31:51:091 -> 2401.00
16:31:51:094 -> 2384.00
16:31:51:094 -> 2406.00
16:31:51:105 -> 2397.00
16:31:51:105 -> 2414.00
16:31:51:105 -> 2479.00
16:31:51:105 -> 2405.00
16:31:51:105 -> 2406.00
16:31:51:105 -> 2424.00
16:31:51:105 -> 2434.00
16:31:51:105 -> 2427.00
16:31:51:105 -> 2430.00
16:31:51:106 -> 2434.00
16:31:51:107 -> 2454.00
16:31:51:108 -> 2434.00
16:31:51:109 -> 2439.00
16:31:51:110 -> 2430.00
16:31:51:111 -> 2404.00
16:31:51:113 -> 2423.00
16:31:51:114 -> 2396.00
16:31:51:115 -> 2385.00
16:31:51:116 -> 2328.00
16:31:51:117 -> 2394.00
16:31:51:119 -> 2391.00
16:31:51:120 -> 2413.00
16:31:51:121 -> 2415.00
16:31:51:122 -> 2442.00
16:31:51:123 -> 2415.00
16:31:51:125 -> 2409.00
16:31:51:126 -> 2455.00
16:31:51:127 -> 2447.00
16:31:51:128 -> 2426.00
16:31:51:129 -> 2418.00
16:31:51:130 -> 2400.00
16:31:51:132 -> 2389.00
16:31:51:133 -> 2380.00
16:31:51:138 -> 2383.00
16:31:51:138 -> 2400.00
16:31:51:138 -> 2389.00
16:31:51:140 -> 2395.00
16:31:51:140 -> 2415.00
16:31:51:141 -> 2426.00
16:31:51:141 -> 2382.00
16:31:51:142 -> 2349.00
16:31:51:144 -> 2420.00
16:31:51:147 -> 2425.00
16:31:51:147 -> 2426.00
16:31:51:148 -> 2456.00
16:31:51:148 -> 2428.00
16:31:51:149 -> 2420.00
16:31:51:176 -> 2430.00
16:31:51:176 -> 2419.00
16:31:51:202 -> 2392.00
16:31:51:202 -> 2381.00
16:31:51:202 -> 2346.00
16:31:51:202 -> 2393.00
16:31:51:202 -> 2346.00
16:31:51:202 -> 2404.00
16:31:51:202 -> 2430.00
16:31:51:202 -> 2401.00
16:31:51:202 -> 2427.00
16:31:51:202 -> 2460.00
16:31:51:202 -> 2490.00
16:31:51:202 -> 2482.00
16:31:51:202 -> 2454.00
16:31:51:202 -> 2445.00
16:31:51:202 -> 2429.00
16:31:51:202 -> 2441.00
16:31:51:202 -> 2399.00
16:31:51:202 -> 2390.00
16:31:51:202 -> 2347.00
16:31:51:202 -> 2329.00
16:31:51:202 -> 2399.00
16:31:51:202 -> 2402.00
16:31:51:202 -> 2397.00
16:31:51:202 -> 2410.00
16:31:51:202 -> 2398.00
16:31:51:202 -> 2375.00
16:31:51:202 -> 2401.00
16:31:51:202 -> 2424.00
16:31:51:202 -> 2425.00
16:31:51:202 -> 2450.00
16:31:51:202 -> 2429.00
16:31:51:202 -> 2438.00
16:31:51:202 -> 2407.00
16:31:51:202 -> 2403.00
16:31:51:202 -> 2396.00
16:31:51:202 -> 2401.00
16:31:51:202 -> 2409.00
16:31:51:202 -> 2415.00
16:31:51:202 -> 2414.00
16:31:51:202 -> 2416.00
16:31:51:214 -> 2403.00
16:31:51:214 -> 2407.00
16:31:51:214 -> 2385.00
16:31:51:214 -> 2407.00
16:31:51:214 -> 2417.00
16:31:51:214 -> 2372.00
16:31:51:214 -> 2392.00
16:31:51:214 -> 2418.00
16:31:51:214 -> 2429.00
16:31:51:221 -> 2436.00
16:31:51:221 -> 2420.00
16:31:51:221 -> 2388.00
16:31:51:221 -> 2375.00
16:31:51:221 -> 2374.00
16:31:51:221 -> 2408.00
16:31:51:221 -> 2408.00
16:31:51:221 -> 2402.00
16:31:51:238 -> 2421.00
16:31:51:238 -> 2431.00
16:31:51:238 -> 2446.00
16:31:51:238 -> 2445.00
16:31:51:238 -> 2422.00
16:31:51:238 -> 2440.00
16:31:51:238 -> 2469.00
16:31:51:238 -> 2459.00
16:31:51:238 -> 2449.00
16:31:51:238 -> 2440.00
16:31:51:238 -> 2414.00
16:31:51:238 -> 2387.00
16:31:51:238 -> 2378.00
16:31:51:238 -> 2402.00
16:31:51:238 -> 2419.00
16:31:51:254 -> 2407.00
16:31:51:254 -> 2432.00
16:31:51:254 -> 2427.00
16:31:51:254 -> 2421.00
16:31:51:254 -> 2436.00
16:31:51:254 -> 2468.00
16:31:51:254 -> 2466.00
16:31:51:254 -> 2434.00
16:31:51:254 -> 2432.00
16:31:51:254 -> 2431.00
16:31:51:254 -> 2388.00
16:31:51:254 -> 2397.00
16:31:51:254 -> 2396.00
16:31:51:254 -> 2379.00
16:31:51:259 -> 2378.00
16:31:51:259 -> 2372.00
16:31:51:259 -> 2402.00
16:31:51:259 -> 2394.00
16:31:51:268 -> 2425.00
16:31:51:268 -> 2416.00
16:31:51:268 -> 2400.00
16:31:51:268 -> 2413.00
16:31:51:268 -> 2412.00
16:31:51:268 -> 2403.00
16:31:51:268 -> 2425.00
16:31:51:270 -> 2430.00
16:31:51:270 -> 2429.00
16:31:51:271 -> 2430.00
16:31:51:273 -> 2392.00
16:31:51:273 -> 2371.00
16:31:51:274 -> 2354.00
16:31:51:276 -> 2376.00
16:31:51:277 -> 2382.00
16:31:51:278 -> 2404.00
16:31:51:279 -> 2405.00
16:31:51:280 -> 2415.00
16:31:51:282 -> 2366.00
16:31:51:283 -> 2378.00
16:31:51:284 -> 2394.00
16:31:51:285 -> 2462.00
16:31:51:286 -> 2431.00
16:31:51:287 -> 2434.00
16:31:51:289 -> 2434.00
16:31:51:290 -> 2414.00
16:31:51:291 -> 2419.00
16:31:51:292 -> 2387.00
16:31:51:293 -> 2412.00
16:31:51:295 -> 2412.00
16:31:51:296 -> 2408.00
16:31:51:297 -> 2344.00
16:31:51:298 -> 2383.00
16:31:51:299 -> 2394.00
16:31:51:301 -> 2401.00
16:31:51:302 -> 2352.00
16:31:51:303 -> 2372.00
16:31:51:304 -> 2428.00
16:31:51:305 -> 2468.00
16:31:51:306 -> 2459.00
16:31:51:308 -> 2463.00
16:31:51:309 -> 2456.00
16:31:51:310 -> 2436.00
16:31:51:319 -> 2425.00
16:31:51:319 -> 2410.00
16:31:51:319 -> 2407.00
16:31:51:319 -> 2402.00
16:31:51:320 -> 2377.00
16:31:51:320 -> 2396.00
16:31:51:320 -> 2404.00
16:31:51:320 -> 2398.00
16:31:51:321 -> 2436.00
16:31:51:323 -> 2423.00
16:31:51:323 -> 2442.00
16:31:51:325 -> 2408.00
16:31:51:326 -> 2431.00
16:31:51:327 -> 2509.00
16:31:51:328 -> 2448.00
16:31:51:330 -> 2438.00
16:31:51:332 -> 2441.00
16:31:51:332 -> 2436.00
16:31:51:333 -> 2396.00
16:31:51:334 -> 2383.00
16:31:51:335 -> 2364.00
16:31:51:336 -> 2394.00
16:31:51:337 -> 2385.00
16:31:51:339 -> 2402.00
16:31:51:340 -> 2406.00
16:31:51:341 -> 2406.00
16:31:51:342 -> 2386.00
16:31:51:343 -> 2415.00
16:31:51:345 -> 2393.00
16:31:51:346 -> 2396.00
16:31:51:347 -> 2410.00
16:31:51:348 -> 2405.00
16:31:51:349 -> 2389.00
16:31:51:351 -> 2422.00
16:31:51:352 -> 2410.00
16:31:51:353 -> 2428.00
16:31:51:354 -> 2428.00
16:31:51:355 -> 2416.00
16:31:51:357 -> 2403.00
16:31:51:358 -> 2396.00
16:31:51:359 -> 2394.00
16:31:51:360 -> 2414.00
16:31:51:361 -> 2393.00
16:31:51:362 -> 2400.00
16:31:51:364 -> 2411.00
16:31:51:365 -> 2416.00
16:31:51:366 -> 2447.00
16:31:51:367 -> 2465.00
16:31:51:368 -> 2481.00
16:31:51:370 -> 2478.00
16:31:51:371 -> 2455.00
16:31:51:372 -> 2416.00
16:31:51:373 -> 2406.00
16:31:51:374 -> 2378.00
16:31:51:376 -> 2398.00
16:31:51:377 -> 2393.00
16:31:51:378 -> 2405.00
16:31:51:379 -> 2426.00
16:31:51:380 -> 2437.00
16:31:51:381 -> 2403.00
16:31:51:383 -> 2420.00
16:31:51:384 -> 2395.00
16:31:51:385 -> 2464.00
16:31:51:386 -> 2478.00
16:31:51:387 -> 2461.00
16:31:51:389 -> 2453.00
16:31:51:390 -> 2438.00
16:31:51:391 -> 2430.00
16:31:51:392 -> 2442.00
16:31:51:393 -> 2391.00
16:31:51:395 -> 2396.00
16:31:51:396 -> 2362.00
16:31:51:397 -> 2398.00
16:31:51:398 -> 2400.00
16:31:51:402 -> 2407.00
16:31:51:432 -> 2404.00
16:31:51:432 -> 2418.00
16:31:51:432 -> 2432.00
16:31:51:432 -> 2386.00
16:31:51:449 -> 2374.00
16:31:51:449 -> 2412.00
16:31:51:449 -> 2420.00
16:31:51:449 -> 2434.00
16:31:51:449 -> 2437.00
16:31:51:449 -> 2438.00
16:31:51:449 -> 2447.00
16:31:51:449 -> 2427.00
16:31:51:449 -> 2371.00
16:31:51:449 -> 2358.00
16:31:51:449 -> 2421.00
16:31:51:449 -> 2442.00
16:31:51:449 -> 2426.00
16:31:51:449 -> 2413.00
16:31:51:449 -> 2424.00
16:31:51:449 -> 2409.00
16:31:51:449 -> 2398.00
16:31:51:449 -> 2435.00
16:31:51:449 -> 2489.00
16:31:51:449 -> 2452.00
16:31:51:449 -> 2428.00
16:31:51:449 -> 2421.00
16:31:51:449 -> 2422.00
16:31:51:449 -> 2387.00
16:31:51:449 -> 2381.00
16:31:51:449 -> 2379.00
16:31:51:449 -> 2423.00
16:31:51:449 -> 2410.00
16:31:51:449 -> 2404.00
16:31:51:449 -> 2420.00
16:31:51:449 -> 2429.00
16:31:51:449 -> 2398.00
16:31:51:449 -> 2408.00
16:31:51:449 -> 2389.00
16:31:51:449 -> 2456.00
16:31:51:449 -> 2427.00
16:31:51:449 -> 2431.00
16:31:51:479 -> 2414.00
16:31:51:479 -> 2413.00
16:31:51:479 -> 2399.00
16:31:51:479 -> 2394.00
16:31:51:479 -> 2374.00
16:31:51:479 -> 2384.00
16:31:51:479 -> 2375.00
16:31:51:479 -> 2391.00
16:31:51:479 -> 2418.00
16:31:51:479 -> 2412.00
16:31:51:479 -> 2434.00
16:31:51:479 -> 2448.00
16:31:51:479 -> 2456.00
16:31:51:479 -> 2411.00
16:31:51:479 -> 2447.00
16:31:51:479 -> 2441.00
16:31:51:479 -> 2432.00
16:31:51:479 -> 2446.00
16:31:51:479 -> 2426.00
16:31:51:479 -> 2413.00
16:31:51:479 -> 2375.00
16:31:51:479 -> 2386.00
16:31:51:479 -> 2366.00
16:31:51:479 -> 2436.00
16:31:51:479 -> 2425.00
16:31:51:504 -> 2398.00
16:31:51:504 -> 2433.00
16:31:51:504 -> 2420.00
16:31:51:504 -> 2413.00
16:31:51:504 -> 2472.00
16:31:51:504 -> 2472.00
16:31:51:504 -> 2464.00
16:31:51:504 -> 2459.00
16:31:51:504 -> 2447.00
16:31:51:504 -> 2434.00
16:31:51:504 -> 2421.00
16:31:51:504 -> 2409.00
16:31:51:504 -> 2378.00
16:31:51:504 -> 2351.00
16:31:51:504 -> 2400.00
16:31:51:504 -> 2391.00
16:31:51:504 -> 2412.00
16:31:51:504 -> 2404.00
16:31:51:504 -> 2415.00
16:31:51:504 -> 2398.00
16:31:51:504 -> 2433.00
16:31:51:513 -> 2437.00
16:31:51:513 -> 2436.00
16:31:51:513 -> 2450.00
16:31:51:513 -> 2432.00
16:31:51:513 -> 2436.00
16:31:51:513 -> 2431.00
16:31:51:513 -> 2436.00
16:31:51:513 -> 2401.00
16:31:51:514 -> 2365.00
16:31:51:540 -> 2382.00
16:31:51:540 -> 2414.00
16:31:51:540 -> 2396.00
16:31:51:540 -> 2395.00
16:31:51:540 -> 2401.00
16:31:51:540 -> 2395.00
16:31:51:540 -> 2374.00
16:31:51:540 -> 2406.00
16:31:51:540 -> 2421.00
16:31:51:540 -> 2465.00
16:31:51:540 -> 2410.00
16:31:51:540 -> 2447.00
16:31:51:540 -> 2444.00
16:31:51:540 -> 2448.00
16:31:51:540 -> 2435.00
16:31:51:540 -> 2419.00
16:31:51:540 -> 2380.00
16:31:51:540 -> 2392.00
16:31:51:540 -> 2348.00
16:31:51:540 -> 2398.00
16:31:51:540 -> 2387.00
16:31:51:540 -> 2404.00
16:31:51:549 -> 2364.00
16:31:51:549 -> 2425.00
16:31:51:549 -> 2430.00
16:31:51:549 -> 2446.00
16:31:51:549 -> 2405.00
16:31:51:549 -> 2457.00
16:31:51:553 -> 2454.00
16:31:51:553 -> 2408.00
16:31:51:553 -> 2446.00
16:31:51:553 -> 2417.00
16:31:51:553 -> 2398.00
16:31:51:555 -> 2358.00
16:31:51:556 -> 2398.00
16:31:51:557 -> 2385.00
16:31:51:558 -> 2405.00
16:31:51:559 -> 2406.00
16:31:51:560 -> 2375.00
16:31:51:561 -> 2440.00
16:31:51:562 -> 2455.00
16:31:51:564 -> 2451.00
16:31:51:565 -> 2487.00
16:31:51:566 -> 2451.00
16:31:51:578 -> 2455.00
16:31:51:578 -> 2446.00
16:31:51:578 -> 2417.00
16:31:51:578 -> 2440.00
16:31:51:578 -> 2433.00
16:31:51:578 -> 2407.00
16:31:51:578 -> 2357.00
16:31:51:578 -> 2359.00
16:31:51:578 -> 2378.00
16:31:51:578 -> 2414.00
16:31:51:579 -> 2402.00
16:31:51:580 -> 2426.00
16:31:51:581 -> 2410.00
16:31:51:583 -> 2402.00
16:31:51:584 -> 2439.00
16:31:51:585 -> 2464.00
16:31:51:586 -> 2468.00
16:31:51:587 -> 2431.00
16:31:51:589 -> 2437.00
16:31:51:590 -> 2435.00
16:31:51:591 -> 2390.00
16:31:51:592 -> 2422.00
16:31:51:593 -> 2385.00
16:31:51:595 -> 2376.00
16:31:51:596 -> 2399.00
16:31:51:600 -> 2397.00
16:31:51:600 -> 2416.00
16:31:51:600 -> 2384.00
16:31:51:601 -> 2418.00
16:31:51:603 -> 2427.00
16:31:51:603 -> 2450.00
16:31:51:613 -> 2439.00
16:31:51:613 -> 2430.00
16:31:51:613 -> 2464.00
16:31:51:613 -> 2410.00
16:31:51:613 -> 2448.00
16:31:51:613 -> 2435.00
16:31:51:613 -> 2429.00
16:31:51:613 -> 2392.00
16:31:51:624 -> 2391.00
16:31:51:624 -> 2385.00
16:31:51:624 -> 2342.00
16:31:51:624 -> 2381.00
16:31:51:624 -> 2412.00
16:31:51:624 -> 2410.00
16:31:51:624 -> 2403.00
16:31:51:624 -> 2368.00
16:31:51:624 -> 2406.00
16:31:51:632 -> 2441.00
16:31:51:632 -> 2495.00
16:31:51:632 -> 2434.00
16:31:51:632 -> 2457.00
16:31:51:632 -> 2440.00
16:31:51:632 -> 2442.00
16:31:51:644 -> 2413.00
16:31:51:644 -> 2447.00
16:31:51:644 -> 2417.00
16:31:51:644 -> 2364.00
16:31:51:644 -> 2362.00
16:31:51:644 -> 2380.00
16:31:51:644 -> 2423.00
16:31:51:644 -> 2421.00
16:31:51:644 -> 2409.00
16:31:51:644 -> 2418.00
16:31:51:644 -> 2419.00
16:31:51:644 -> 2401.00
16:31:51:646 -> 2411.00
16:31:51:648 -> 2432.00
16:31:51:648 -> 2415.00
16:31:51:650 -> 2394.00
16:31:51:652 -> 2401.00
16:31:51:652 -> 2423.00
16:31:51:653 -> 2431.00
16:31:51:654 -> 2373.00
16:31:51:655 -> 2355.00
16:31:51:656 -> 2392.00
16:31:51:657 -> 2411.00
16:31:51:659 -> 2415.00
16:31:51:660 -> 2431.00
16:31:51:661 -> 2420.00
16:31:51:666 -> 2418.00
16:31:51:666 -> 2425.00
16:31:51:666 -> 2475.00
16:31:51:667 -> 2469.00
16:31:51:667 -> 2439.00
16:31:51:669 -> 2465.00
16:31:51:670 -> 2475.00
16:31:51:708 -> 2423.00
16:31:51:708 -> 2437.00
16:31:51:708 -> 2430.00
16:31:51:708 -> 2406.00
16:31:51:708 -> 2421.00
16:31:51:715 -> 2413.00
16:31:51:715 -> 2418.00
16:31:51:715 -> 2409.00
16:31:51:715 -> 2449.00
16:31:51:715 -> 2434.00
16:31:51:715 -> 2425.00
16:31:51:715 -> 2445.00
16:31:51:715 -> 2417.00
16:31:51:715 -> 2425.00
16:31:51:715 -> 2430.00
16:31:51:715 -> 2463.00
16:31:51:715 -> 2438.00
16:31:51:715 -> 2440.00
16:31:51:715 -> 2410.00
16:31:51:715 -> 2394.00
16:31:51:715 -> 2397.00
16:31:51:715 -> 2348.00
16:31:51:715 -> 2378.00
16:31:51:715 -> 2396.00
16:31:51:715 -> 2416.00
16:31:51:715 -> 2414.00
16:31:51:715 -> 2378.00
16:31:51:715 -> 2403.00
16:31:51:715 -> 2424.00
16:31:51:715 -> 2460.00
16:31:51:715 -> 2422.00
16:31:51:715 -> 2426.00
16:31:51:715 -> 2440.00
16:31:51:715 -> 2422.00
16:31:51:715 -> 2432.00
16:31:51:715 -> 2390.00
16:31:51:715 -> 2407.00
16:31:51:715 -> 2392.00
16:31:51:716 -> 2378.00
16:31:51:717 -> 2389.00
16:31:51:718 -> 2399.00
16:31:51:719 -> 2393.00
16:31:51:721 -> 2432.00
16:31:51:722 -> 2452.00
16:31:51:723 -> 2416.00
16:31:51:724 -> 2462.00
16:31:51:737 -> 2433.00
16:31:51:737 -> 2421.00
16:31:51:737 -> 2442.00
16:31:51:737 -> 2445.00
16:31:51:737 -> 2417.00
16:31:51:737 -> 2417.00
16:31:51:737 -> 2414.00
16:31:51:737 -> 2352.00
16:31:51:737 -> 2355.00
16:31:51:737 -> 2393.00
16:31:51:740 -> 2383.00
16:31:51:740 -> 2395.00
16:31:51:740 -> 2422.00
16:31:51:751 -> 2403.00
16:31:51:751 -> 2426.00
16:31:51:751 -> 2405.00
16:31:51:751 -> 2455.00
16:31:51:751 -> 2470.00
16:31:51:751 -> 2486.00
16:31:51:751 -> 2446.00
16:31:51:751 -> 2427.00
16:31:51:751 -> 2432.00
16:31:51:754 -> 2420.00
16:31:51:754 -> 2438.00
16:31:51:754 -> 2394.00
16:31:51:757 -> 2372.00
16:31:51:757 -> 2390.00
16:31:51:758 -> 2388.00
16:31:51:759 -> 2403.00
16:31:51:760 -> 2437.00
16:31:51:761 -> 2443.00
16:31:51:762 -> 2428.00
16:31:51:763 -> 2428.00
16:31:51:765 -> 2458.00
16:31:51:766 -> 2453.00
16:31:51:767 -> 2450.00
16:31:51:768 -> 2453.00
16:31:51:769 -> 2448.00
16:31:51:770 -> 2438.00
16:31:51:772 -> 2440.00
16:31:51:773 -> 2464.00
16:31:51:774 -> 2383.00
16:31:51:775 -> 2399.00
16:31:51:776 -> 2394.00
16:31:51:779 -> 2408.00
16:31:51:786 -> 2389.00
16:31:51:786 -> 2414.00
16:31:51:786 -> 2368.00
16:31:51:786 -> 2424.00
16:31:51:786 -> 2442.00
16:31:51:786 -> 2424.00
16:31:51:803 -> 2408.00
16:31:51:803 -> 2424.00
16:31:51:807 -> 2424.00
16:31:51:807 -> 2443.00
16:31:51:807 -> 2433.00
16:31:51:807 -> 2385.00
16:31:51:807 -> 2399.00
16:31:51:807 -> 2377.00
16:31:51:807 -> 2346.00
16:31:51:807 -> 2384.00
16:31:51:807 -> 2407.00
16:31:51:807 -> 2400.00
16:31:51:807 -> 2399.00
16:31:51:807 -> 2389.00
16:31:51:807 -> 2393.00
16:31:51:807 -> 2394.00
16:31:51:807 -> 2449.00
16:31:51:807 -> 2425.00
16:31:51:807 -> 2442.00
16:31:51:809 -> 2417.00
16:31:51:810 -> 2430.00
16:31:51:814 -> 2435.00
16:31:51:818 -> 2467.00
16:31:51:818 -> 2422.00
16:31:51:818 -> 2371.00
16:31:51:818 -> 2343.00
16:31:51:818 -> 2383.00
16:31:51:819 -> 2409.00
16:31:51:820 -> 2420.00
16:31:51:821 -> 2422.00
16:31:51:822 -> 2414.00
16:31:51:823 -> 2419.00
16:31:51:824 -> 2438.00
16:31:51:825 -> 2408.00
16:31:51:826 -> 2492.00
16:31:51:828 -> 2426.00
16:31:51:829 -> 2434.00
16:31:51:830 -> 2440.00
16:31:51:831 -> 2434.00
16:31:51:832 -> 2441.00
16:31:51:834 -> 2398.00
16:31:51:835 -> 2348.00
16:31:51:836 -> 2357.00
16:31:51:837 -> 2399.00
16:31:51:838 -> 2414.00
16:31:51:840 -> 2427.00
16:31:51:841 -> 2402.00
16:31:51:842 -> 2432.00
16:31:51:843 -> 2399.00
16:31:51:844 -> 2417.00
16:31:51:846 -> 2452.00
16:31:51:847 -> 2478.00
16:31:51:848 -> 2447.00
16:31:51:849 -> 2420.00
16:31:51:850 -> 2448.00
16:31:51:852 -> 2401.00
16:31:51:853 -> 2376.00
16:31:51:854 -> 2407.00
16:31:51:855 -> 2398.00
16:31:51:856 -> 2378.00
16:31:51:857 -> 2394.00
16:31:51:859 -> 2417.00
16:31:51:860 -> 2437.00
16:31:51:861 -> 2406.00
16:31:51:862 -> 2437.00
16:31:51:863 -> 2453.00
16:31:51:865 -> 2489.00
16:31:51:866 -> 2399.00
16:31:51:867 -> 2431.00
16:31:51:905 -> 2455.00
16:31:51:905 -> 2448.00
16:31:51:905 -> 2432.00
16:31:51:905 -> 2418.00
16:31:51:905 -> 2408.00
16:31:51:905 -> 2383.00
16:31:51:905 -> 2351.00
16:31:51:905 -> 2401.00
16:31:51:905 -> 2393.00
16:31:51:905 -> 2399.00
16:31:51:905 -> 2409.00
16:31:51:905 -> 2407.00
16:31:51:905 -> 2400.00
16:31:51:905 -> 2424.00
16:31:51:905 -> 2435.00
16:31:51:905 -> 2470.00
16:31:51:905 -> 2432.00
16:31:51:905 -> 2423.00
16:31:51:905 -> 2435.00
16:31:51:905 -> 2415.00
16:31:51:905 -> 2430.00
16:31:51:905 -> 2431.00
16:31:51:905 -> 2400.00
16:31:51:905 -> 2358.00
16:31:51:905 -> 2400.00
16:31:51:905 -> 2430.00
16:31:51:905 -> 2413.00
16:31:51:905 -> 2423.00
16:31:51:905 -> 2438.00
16:31:51:905 -> 2396.00
16:31:51:905 -> 2456.00
16:31:51:922 -> 2450.00
16:31:51:922 -> 2478.00
16:31:51:922 -> 2437.00
16:31:51:922 -> 2440.00
16:31:51:922 -> 2426.00
16:31:51:922 -> 2401.00
16:31:51:922 -> 2401.00
16:31:51:922 -> 2398.00
16:31:51:922 -> 2433.00
16:31:51:922 -> 2443.00
16:31:51:922 -> 2453.00
16:31:51:922 -> 2414.00
16:31:51:922 -> 2420.00
16:31:51:922 -> 2361.00
16:31:51:922 -> 2428.00
16:31:51:960 -> 2438.00
16:31:51:960 -> 2446.00
16:31:51:960 -> 2456.00
16:31:51:960 -> 2461.00
16:31:51:960 -> 2448.00
16:31:51:960 -> 2439.00
16:31:51:960 -> 2429.00
16:31:51:960 -> 2423.00
16:31:51:960 -> 2423.00
16:31:51:960 -> 2390.00
16:31:51:960 -> 2357.00
16:31:51:960 -> 2403.00
16:31:51:960 -> 2398.00
16:31:51:960 -> 2408.00
16:31:51:960 -> 2413.00
16:31:51:960 -> 2415.00
16:31:51:960 -> 2363.00
16:31:51:960 -> 2381.00
16:31:51:960 -> 2382.00
16:31:51:960 -> 2415.00
16:31:51:960 -> 2390.00
16:31:51:960 -> 2410.00
16:31:51:960 -> 2436.00
16:31:51:960 -> 2465.00
16:31:51:960 -> 2412.00
16:31:51:960 -> 2393.00
16:31:51:960 -> 2399.00
16:31:51:960 -> 2455.00
16:31:51:960 -> 2402.00
16:31:51:960 -> 2414.00
16:31:51:960 -> 2432.00
16:31:51:980 -> 2417.00
16:31:51:980 -> 2440.00
16:31:51:980 -> 2447.00
16:31:51:980 -> 2446.00
16:31:51:980 -> 2445.00
16:31:51:980 -> 2460.00
16:31:51:980 -> 2513.00
16:31:51:980 -> 2457.00
16:31:51:980 -> 2450.00
16:31:51:980 -> 2439.00
16:31:51:980 -> 2400.00
16:31:51:980 -> 2420.00
16:31:51:980 -> 2392.00
16:31:51:980 -> 2403.00
16:31:51:980 -> 2384.00
16:31:51:980 -> 2397.00
16:31:52:018 -> 2407.00
16:31:52:018 -> 2401.00
16:31:52:018 -> 2416.00
16:31:52:018 -> 2414.00
16:31:52:018 -> 2435.00
16:31:52:018 -> 2444.00
16:31:52:018 -> 2457.00
16:31:52:018 -> 2425.00
16:31:52:018 -> 2439.00
16:31:52:018 -> 2446.00
16:31:52:018 -> 2450.00
16:31:52:018 -> 2438.00
16:31:52:018 -> 2417.00
16:31:52:018 -> 2405.00
16:31:52:018 -> 2339.00
16:31:52:018 -> 2396.00
16:31:52:018 -> 2414.00
16:31:52:018 -> 2417.00
16:31:52:018 -> 2409.00
16:31:52:018 -> 2392.00
16:31:52:018 -> 2417.00
16:31:52:018 -> 2423.00
16:31:52:018 -> 2456.00
16:31:52:018 -> 2490.00
16:31:52:018 -> 2443.00
16:31:52:018 -> 2440.00
16:31:52:018 -> 2433.00
16:31:52:018 -> 2436.00
16:31:52:018 -> 2414.00
16:31:52:018 -> 2397.00
16:31:52:018 -> 2369.00
16:31:52:018 -> 2382.00
16:31:52:018 -> 2392.00
16:31:52:018 -> 2386.00
16:31:52:046 -> 2389.00
16:31:52:046 -> 2418.00
16:31:52:046 -> 2387.00
16:31:52:046 -> 2378.00
16:31:52:046 -> 2381.00
16:31:52:046 -> 2454.00
16:31:52:046 -> 2430.00
16:31:52:046 -> 2441.00
16:31:52:046 -> 2440.00
16:31:52:046 -> 2363.00
16:31:52:046 -> 2434.00
16:31:52:046 -> 2443.00
16:31:52:046 -> 2430.00
16:31:52:062 -> 2409.00
16:31:52:062 -> 2369.00
16:31:52:062 -> 2391.00
16:31:52:062 -> 2408.00
16:31:52:062 -> 2417.00
16:31:52:062 -> 2384.00
16:31:52:062 -> 2396.00
16:31:52:062 -> 2391.00
16:31:52:062 -> 2417.00
16:31:52:062 -> 2469.00
16:31:52:062 -> 2477.00
16:31:52:062 -> 2445.00
16:31:52:062 -> 2444.00
16:31:52:062 -> 2440.00
16:31:52:062 -> 2422.00
16:31:52:062 -> 2412.00
16:31:52:062 -> 2390.00
16:31:52:062 -> 2365.00
16:31:52:062 -> 2402.00
16:31:52:062 -> 2430.00
16:31:52:062 -> 2425.00
16:31:52:062 -> 2433.00
16:31:52:062 -> 2438.00
16:31:52:067 -> 2410.00
16:31:52:067 -> 2435.00
16:31:52:067 -> 2483.00
16:31:52:067 -> 2458.00
16:31:52:067 -> 2450.00
16:31:52:072 -> 2441.00
16:31:52:072 -> 2458.00
16:31:52:072 -> 2437.00
16:31:52:072 -> 2437.00
16:31:52:087 -> 2419.00
16:31:52:087 -> 2365.00
16:31:52:087 -> 2338.00
16:31:52:087 -> 2375.00
16:31:52:087 -> 2382.00
16:31:52:087 -> 2412.00
16:31:52:087 -> 2401.00
16:31:52:087 -> 2425.00
16:31:52:087 -> 2425.00
16:31:52:087 -> 2435.00
16:31:52:087 -> 2417.00
16:31:52:087 -> 2489.00
16:31:52:090 -> 2436.00
16:31:52:090 -> 2448.00
16:31:52:090 -> 2426.00
16:31:52:091 -> 2434.00
16:31:52:105 -> 2400.00
16:31:52:105 -> 2398.00
16:31:52:105 -> 2390.00
16:31:52:105 -> 2393.00
16:31:52:105 -> 2401.00
16:31:52:105 -> 2432.00
16:31:52:105 -> 2407.00
16:31:52:105 -> 2415.00
16:31:52:105 -> 2391.00
16:31:52:105 -> 2425.00
16:31:52:105 -> 2409.00
16:31:52:105 -> 2431.00
16:31:52:108 -> 2386.00
16:31:52:108 -> 2423.00
16:31:52:109 -> 2422.00
16:31:52:110 -> 2414.00
16:31:52:125 -> 2425.00
16:31:52:125 -> 2422.00
16:31:52:125 -> 2400.00
16:31:52:125 -> 2372.00
16:31:52:125 -> 2420.00
16:31:52:125 -> 2432.00
16:31:52:125 -> 2449.00
16:31:52:125 -> 2431.00
16:31:52:125 -> 2438.00
16:31:52:125 -> 2416.00
16:31:52:125 -> 2431.00
16:31:52:125 -> 2419.00
16:31:52:131 -> 2467.00
16:31:52:131 -> 2454.00
16:31:52:131 -> 2447.00
16:31:52:131 -> 2428.00
16:31:52:131 -> 2426.00
16:31:52:136 -> 2396.00
16:31:52:136 -> 2405.00
16:31:52:136 -> 2386.00
16:31:52:136 -> 2388.00
16:31:52:136 -> 2376.00
16:31:52:140 -> 2380.00
16:31:52:140 -> 2431.00
16:31:52:140 -> 2398.00
16:31:52:142 -> 2432.00
16:31:52:146 -> 2477.00
16:31:52:146 -> 2463.00
16:31:52:146 -> 2445.00
16:31:52:146 -> 2429.00
16:31:52:147 -> 2448.00
16:31:52:149 -> 2460.00
16:31:52:151 -> 2448.00
16:31:52:151 -> 2394.00
16:31:52:151 -> 2445.00
16:31:52:152 -> 2432.00
16:31:52:155 -> 2407.00
16:31:52:155 -> 2363.00
16:31:52:163 -> 2408.00
16:31:52:163 -> 2406.00
16:31:52:163 -> 2416.00
16:31:52:163 -> 2420.00
16:31:52:163 -> 2431.00
16:31:52:163 -> 2394.00
16:31:52:177 -> 2424.00
16:31:52:177 -> 2445.00
16:31:52:177 -> 2470.00
16:31:52:177 -> 2445.00
16:31:52:177 -> 2454.00
16:31:52:177 -> 2447.00
16:31:52:177 -> 2396.00
16:31:52:177 -> 2422.00
16:31:52:177 -> 2396.00
16:31:52:177 -> 2349.00
16:31:52:177 -> 2366.00
16:31:52:177 -> 2371.00
16:31:52:179 -> 2394.00
16:31:52:179 -> 2366.00
16:31:52:180 -> 2419.00
16:31:52:182 -> 2443.00
16:31:52:196 -> 2398.00
16:31:52:196 -> 2423.00
16:31:52:196 -> 2445.00
16:31:52:196 -> 2418.00
16:31:52:196 -> 2461.00
16:31:52:196 -> 2463.00
16:31:52:196 -> 2438.00
16:31:52:196 -> 2430.00
16:31:52:196 -> 2424.00
16:31:52:196 -> 2411.00
16:31:52:196 -> 2391.00
16:31:52:196 -> 2352.00
16:31:52:198 -> 2389.00
16:31:52:198 -> 2404.00
16:31:52:199 -> 2406.00
16:31:52:200 -> 2419.00
16:31:52:203 -> 2416.00
16:31:52:203 -> 2437.00
16:31:52:206 -> 2428.00
16:31:52:206 -> 2457.00
16:31:52:242 -> 2483.00
16:31:52:242 -> 2449.00
16:31:52:242 -> 2440.00
16:31:52:242 -> 2433.00
16:31:52:243 -> 2393.00
16:31:52:243 -> 2389.00
16:31:52:243 -> 2406.00
16:31:52:243 -> 2383.00
16:31:52:243 -> 2403.00
16:31:52:243 -> 2363.00
16:31:52:243 -> 2390.00
16:31:52:243 -> 2415.00
16:31:52:243 -> 2408.00
16:31:52:243 -> 2406.00
16:31:52:243 -> 2427.00
16:31:52:243 -> 2466.00
16:31:52:243 -> 2485.00
16:31:52:243 -> 2508.00
16:31:52:243 -> 2468.00
16:31:52:243 -> 2460.00
16:31:52:243 -> 2446.00
16:31:52:243 -> 2436.00
16:31:52:243 -> 2414.00
16:31:52:243 -> 2393.00
16:31:52:243 -> 2359.00
16:31:52:243 -> 2392.00
16:31:52:243 -> 2370.00
16:31:52:243 -> 2395.00
16:31:52:243 -> 2373.00
16:31:52:243 -> 2387.00
16:31:52:243 -> 2433.00
16:31:52:243 -> 2455.00
16:31:52:244 -> 2468.00
16:31:52:245 -> 2463.00
16:31:52:246 -> 2458.00
16:31:52:248 -> 2454.00
16:31:52:249 -> 2431.00
16:31:52:251 -> 2427.00
16:31:52:254 -> 2443.00
16:31:52:254 -> 2429.00
16:31:52:259 -> 2386.00
16:31:52:259 -> 2352.00
16:31:52:259 -> 2361.00
16:31:52:259 -> 2407.00
16:31:52:259 -> 2427.00
16:31:52:260 -> 2409.00
16:31:52:267 -> 2435.00
16:31:52:267 -> 2446.00
16:31:52:267 -> 2422.00
16:31:52:267 -> 2401.00
16:31:52:267 -> 2432.00
16:31:52:267 -> 2461.00
16:31:52:273 -> 2450.00
16:31:52:273 -> 2457.00
16:31:52:273 -> 2428.00
16:31:52:273 -> 2415.00
16:31:52:273 -> 2397.00
16:31:52:283 -> 2395.00
16:31:52:283 -> 2393.00
16:31:52:283 -> 2388.00
16:31:52:283 -> 2394.00
16:31:52:283 -> 2411.00
16:31:52:283 -> 2415.00
16:31:52:283 -> 2407.00
16:31:52:283 -> 2418.00
16:31:52:302 -> 2443.00
16:31:52:302 -> 2442.00
16:31:52:302 -> 2443.00
16:31:52:302 -> 2437.00
16:31:52:302 -> 2452.00
16:31:52:302 -> 2445.00
16:31:52:302 -> 2431.00
16:31:52:302 -> 2442.00
16:31:52:302 -> 2410.00
16:31:52:302 -> 2369.00
16:31:52:302 -> 2374.00
16:31:52:302 -> 2399.00
16:31:52:302 -> 2411.00
16:31:52:302 -> 2412.00
16:31:52:302 -> 2422.00
16:31:52:302 -> 2422.00
16:31:52:303 -> 2388.00
16:31:52:308 -> 2415.00
16:31:52:308 -> 2479.00
16:31:52:308 -> 2465.00
16:31:52:308 -> 2467.00
16:31:52:312 -> 2462.00
16:31:52:312 -> 2439.00
16:31:52:312 -> 2418.00
16:31:52:312 -> 2410.00
16:31:52:318 -> 2386.00
16:31:52:318 -> 2395.00
16:31:52:318 -> 2401.00
16:31:52:318 -> 2425.00
16:31:52:334 -> 2400.00
16:31:52:334 -> 2400.00
16:31:52:334 -> 2423.00
16:31:52:334 -> 2408.00
16:31:52:334 -> 2407.00
16:31:52:334 -> 2425.00
16:31:52:334 -> 2434.00
16:31:52:334 -> 2453.00
16:31:52:334 -> 2447.00
16:31:52:334 -> 2454.00
16:31:52:334 -> 2431.00
16:31:52:334 -> 2404.00
16:31:52:334 -> 2396.00
16:31:52:334 -> 2377.00
16:31:52:340 -> 2395.00
16:31:52:340 -> 2425.00
16:31:52:340 -> 2394.00
16:31:52:340 -> 2401.00
16:31:52:340 -> 2413.00
16:31:52:348 -> 2419.00
16:31:52:348 -> 2434.00
16:31:52:348 -> 2452.00
16:31:52:348 -> 2440.00
16:31:52:348 -> 2442.00
16:31:52:348 -> 2471.00
16:31:52:352 -> 2460.00
16:31:52:352 -> 2446.00
16:31:52:352 -> 2458.00
16:31:52:352 -> 2443.00
16:31:52:352 -> 2433.00
16:31:52:369 -> 2415.00
16:31:52:369 -> 2344.00
16:31:52:369 -> 2354.00
16:31:52:369 -> 2394.00
16:31:52:369 -> 2374.00
16:31:52:369 -> 2431.00
16:31:52:369 -> 2427.00
16:31:52:369 -> 2445.00
16:31:52:369 -> 2413.00
16:31:52:369 -> 2417.00
16:31:52:369 -> 2443.00
16:31:52:369 -> 2473.00
16:31:52:369 -> 2453.00
16:31:52:369 -> 2436.00
16:31:52:389 -> 2422.00
16:31:52:389 -> 2434.00
16:31:52:389 -> 2392.00
16:31:52:389 -> 2400.00
16:31:52:389 -> 2406.00
16:31:52:389 -> 2404.00
16:31:52:389 -> 2420.00
16:31:52:389 -> 2458.00
16:31:52:389 -> 2426.00
16:31:52:389 -> 2432.00
16:31:52:389 -> 2411.00
16:31:52:389 -> 2460.00
16:31:52:389 -> 2456.00
16:31:52:389 -> 2441.00
16:31:52:389 -> 2451.00
16:31:52:389 -> 2475.00
16:31:52:395 -> 2460.00
16:31:52:395 -> 2441.00
16:31:52:395 -> 2441.00
16:31:52:395 -> 2408.00
16:31:52:395 -> 2396.00
16:31:52:441 -> 2364.00
16:31:52:441 -> 2382.00
16:31:52:441 -> 2374.00
16:31:52:441 -> 2404.00
16:31:52:441 -> 2391.00
16:31:52:441 -> 2428.00
16:31:52:441 -> 2414.00
16:31:52:441 -> 2390.00
16:31:52:441 -> 2434.00
16:31:52:441 -> 2462.00
16:31:52:441 -> 2489.00
16:31:52:441 -> 2476.00
16:31:52:441 -> 2458.00
16:31:52:441 -> 2454.00
16:31:52:451 -> 2398.00
16:31:52:451 -> 2394.00
16:31:52:451 -> 2380.00
16:31:52:451 -> 2435.00
16:31:52:451 -> 2412.00
16:31:52:451 -> 2403.00
16:31:52:451 -> 2414.00
16:31:52:451 -> 2416.00
16:31:52:451 -> 2434.00
16:31:52:451 -> 2455.00
16:31:52:451 -> 2429.00
16:31:52:451 -> 2422.00
16:31:52:451 -> 2442.00
16:31:52:451 -> 2443.00
16:31:52:451 -> 2453.00
16:31:52:451 -> 2438.00
16:31:52:451 -> 2483.00
16:31:52:451 -> 2427.00
16:31:52:451 -> 2402.00
16:31:52:451 -> 2380.00
16:31:52:451 -> 2359.00
16:31:52:451 -> 2368.00
16:31:52:451 -> 2397.00
16:31:52:451 -> 2421.00
16:31:52:451 -> 2449.00
16:31:52:451 -> 2438.00
16:31:52:451 -> 2403.00
16:31:52:451 -> 2434.00
16:31:52:451 -> 2422.00
16:31:52:451 -> 2466.00
16:31:52:451 -> 2448.00
16:31:52:451 -> 2448.00
16:31:52:451 -> 2415.00
16:31:52:454 -> 2415.00
16:31:52:454 -> 2396.00
16:31:52:454 -> 2396.00
16:31:52:458 -> 2356.00
16:31:52:458 -> 2361.00
16:31:52:458 -> 2379.00
16:31:52:459 -> 2420.00
16:31:52:464 -> 2431.00
16:31:52:464 -> 2450.00
16:31:52:464 -> 2449.00
16:31:52:464 -> 2450.00
16:31:52:468 -> 2453.00
16:31:52:468 -> 2445.00
16:31:52:468 -> 2474.00
16:31:52:469 -> 2474.00
16:31:52:469 -> 2460.00
16:31:52:473 -> 2427.00
16:31:52:473 -> 2446.00
16:31:52:473 -> 2389.00
16:31:52:475 -> 2385.00
16:31:52:476 -> 2394.00
16:31:52:477 -> 2423.00
16:31:52:477 -> 2435.00
16:31:52:479 -> 2440.00
16:31:52:480 -> 2427.00
16:31:52:481 -> 2433.00
16:31:52:482 -> 2442.00
16:31:52:483 -> 2440.00
16:31:52:484 -> 2395.00
16:31:52:486 -> 2451.00
16:31:52:492 -> 2459.00
16:31:52:492 -> 2453.00
16:31:52:492 -> 2372.00
16:31:52:492 -> 2427.00
16:31:52:492 -> 2421.00
16:31:52:493 -> 2383.00
16:31:52:494 -> 2375.00
16:31:52:495 -> 2377.00
16:31:52:496 -> 2401.00
16:31:52:497 -> 2394.00
16:31:52:499 -> 2413.00
16:31:52:500 -> 2427.00
16:31:52:501 -> 2430.00
16:31:52:502 -> 2436.00
16:31:52:503 -> 2445.00
16:31:52:505 -> 2489.00
16:31:52:506 -> 2481.00
16:31:52:507 -> 2467.00
16:31:52:508 -> 2463.00
16:31:52:509 -> 2460.00
16:31:52:511 -> 2432.00
16:31:52:512 -> 2440.00
16:31:52:513 -> 2420.00
16:31:52:514 -> 2401.00
16:31:52:515 -> 2425.00
16:31:52:517 -> 2428.00
16:31:52:518 -> 2439.00
16:31:52:519 -> 2420.00
16:31:52:520 -> 2406.00
16:31:52:521 -> 2415.00
16:31:52:522 -> 2417.00
16:31:52:524 -> 2405.00
16:31:52:525 -> 2428.00
16:31:52:526 -> 2428.00
16:31:52:527 -> 2413.00
16:31:52:529 -> 2414.00
16:31:52:530 -> 2417.00
16:31:52:531 -> 2387.00
16:31:52:532 -> 2388.00
16:31:52:533 -> 2397.00
16:31:52:534 -> 2375.00
16:31:52:536 -> 2372.00
16:31:52:537 -> 2377.00
16:31:52:538 -> 2403.00
16:31:52:539 -> 2433.00
16:31:52:540 -> 2447.00
16:31:52:541 -> 2453.00
16:31:52:543 -> 2447.00
16:31:52:544 -> 2479.00
16:31:52:545 -> 2452.00
16:31:52:546 -> 2516.00
16:31:52:547 -> 2499.00
16:31:52:549 -> 2483.00
16:31:52:551 -> 2495.00
16:31:52:551 -> 2463.00
16:31:52:552 -> 2416.00
16:31:52:554 -> 2409.00
16:31:52:556 -> 2437.00
16:31:52:556 -> 2434.00
16:31:52:560 -> 2420.00
16:31:52:560 -> 2424.00
16:31:52:560 -> 2445.00
16:31:52:563 -> 2468.00
16:31:52:563 -> 2427.00
16:31:52:565 -> 2419.00
16:31:52:565 -> 2469.00
16:31:52:567 -> 2482.00
16:31:52:568 -> 2462.00
16:31:52:568 -> 2453.00
16:31:52:569 -> 2450.00
16:31:52:570 -> 2444.00
16:31:52:571 -> 2426.00
16:31:52:572 -> 2443.00
16:31:52:574 -> 2432.00
16:31:52:575 -> 2390.00
16:31:52:576 -> 2387.00
16:31:52:577 -> 2407.00
16:31:52:578 -> 2428.00
16:31:52:580 -> 2427.00
16:31:52:581 -> 2458.00
16:31:52:582 -> 2436.00
16:31:52:583 -> 2470.00
16:31:52:584 -> 2384.00
16:31:52:586 -> 2391.00
16:31:52:587 -> 2436.00
16:31:52:588 -> 2453.00
16:31:52:589 -> 2433.00
16:31:52:590 -> 2444.00
16:31:52:592 -> 2433.00
16:31:52:593 -> 2429.00
16:31:52:594 -> 2378.00
16:31:52:595 -> 2376.00
16:31:52:598 -> 2415.00
16:31:52:598 -> 2420.00
16:31:52:599 -> 2423.00
16:31:52:601 -> 2430.00
16:31:52:604 -> 2431.00
16:31:52:604 -> 2454.00
16:31:52:604 -> 2440.00
16:31:52:607 -> 2478.00
16:31:52:607 -> 2465.00
16:31:52:615 -> 2447.00
16:31:52:615 -> 2458.00
16:31:52:615 -> 2447.00
16:31:52:615 -> 2438.00
16:31:52:615 -> 2447.00
16:31:52:615 -> 2428.00
16:31:52:615 -> 2405.00
16:31:52:619 -> 2357.00
16:31:52:619 -> 2396.00
16:31:52:619 -> 2412.00
16:31:52:619 -> 2419.00
16:31:52:625 -> 2419.00
16:31:52:625 -> 2434.00
16:31:52:625 -> 2414.00
16:31:52:625 -> 2436.00
16:31:52:631 -> 2423.00
16:31:52:631 -> 2431.00
16:31:52:631 -> 2464.00
16:31:52:631 -> 2426.00
16:31:52:631 -> 2413.00
16:31:52:641 -> 2386.00
16:31:52:641 -> 2375.00
16:31:52:641 -> 2370.00
16:31:52:641 -> 2390.00
16:31:52:641 -> 2410.00
16:31:52:641 -> 2417.00
16:31:52:641 -> 2434.00
16:31:52:641 -> 2447.00
16:31:52:641 -> 2431.00
16:31:52:643 -> 2431.00
16:31:52:643 -> 2450.00
16:31:52:648 -> 2448.00
16:31:52:648 -> 2441.00
16:31:52:650 -> 2480.00
16:31:52:650 -> 2462.00
16:31:52:650 -> 2464.00
16:31:52:650 -> 2455.00
16:31:52:651 -> 2464.00
16:31:52:652 -> 2431.00
16:31:52:653 -> 2414.00
16:31:52:654 -> 2393.00
16:31:52:656 -> 2424.00
16:31:52:657 -> 2402.00
16:31:52:658 -> 2436.00
16:31:52:659 -> 2448.00
16:31:52:660 -> 2446.00
16:31:52:662 -> 2423.00
16:31:52:663 -> 2424.00
16:31:52:664 -> 2459.00
16:31:52:665 -> 2510.00
16:31:52:666 -> 2461.00
16:31:52:668 -> 2455.00
16:31:52:669 -> 2424.00
16:31:52:670 -> 2417.00
16:31:52:671 -> 2417.00
16:31:52:672 -> 2431.00
16:31:52:674 -> 2414.00
16:31:52:675 -> 2401.00
16:31:52:677 -> 2396.00
16:31:52:678 -> 2431.00
16:31:52:678 -> 2424.00
16:31:52:679 -> 2437.00
16:31:52:681 -> 2462.00
16:31:52:682 -> 2421.00
16:31:52:683 -> 2442.00
16:31:52:684 -> 2428.00
16:31:52:685 -> 2419.00
16:31:52:687 -> 2468.00
16:31:52:688 -> 2453.00
16:31:52:689 -> 2455.00
16:31:52:691 -> 2446.00
16:31:52:692 -> 2422.00
16:31:52:693 -> 2420.00
16:31:52:694 -> 2394.00
16:31:52:695 -> 2362.00
16:31:52:696 -> 2395.00
16:31:52:697 -> 2411.00
16:31:52:699 -> 2419.00
16:31:52:700 -> 2419.00
16:31:52:701 -> 2395.00
16:31:52:702 -> 2443.00
16:31:52:703 -> 2457.00
16:31:52:704 -> 2474.00
16:31:52:706 -> 2448.00
16:31:52:707 -> 2463.00
16:31:52:708 -> 2446.00
16:31:52:710 -> 2434.00
16:31:52:716 -> 2419.00
16:31:52:716 -> 2423.00
16:31:52:716 -> 2406.00
16:31:52:733 -> 2458.00
16:31:52:733 -> 2371.00
16:31:52:733 -> 2408.00
16:31:52:733 -> 2433.00
16:31:52:733 -> 2422.00
16:31:52:733 -> 2414.00
16:31:52:733 -> 2452.00
16:31:52:733 -> 2449.00
16:31:52:791 -> 2444.00
16:31:52:791 -> 2455.00
16:31:52:791 -> 2464.00
16:31:52:791 -> 2465.00
16:31:52:791 -> 2455.00
16:31:52:791 -> 2433.00
16:31:52:791 -> 2436.00
16:31:52:791 -> 2424.00
16:31:52:791 -> 2396.00
16:31:52:791 -> 2360.00
16:31:52:791 -> 2361.00
16:31:52:791 -> 2431.00
16:31:52:791 -> 2427.00
16:31:52:833 -> 2432.00
16:31:52:833 -> 2452.00
16:31:52:833 -> 2429.00
16:31:52:833 -> 2456.00
16:31:52:833 -> 2455.00
16:31:52:833 -> 2432.00
16:31:52:833 -> 2454.00
16:31:52:833 -> 2447.00
16:31:52:833 -> 2437.00
16:31:52:833 -> 2435.00
16:31:52:833 -> 2388.00
16:31:52:833 -> 2402.00
16:31:52:833 -> 2418.00
16:31:52:833 -> 2418.00
16:31:52:833 -> 2419.00
16:31:52:833 -> 2415.00
16:31:52:833 -> 2406.00
16:31:52:833 -> 2436.00
16:31:52:833 -> 2430.00
16:31:52:833 -> 2432.00
16:31:52:833 -> 2472.00
16:31:52:833 -> 2496.00
16:31:52:833 -> 2432.00
16:31:52:833 -> 2488.00
16:31:52:833 -> 2447.00
16:31:52:833 -> 2464.00
16:31:52:833 -> 2450.00
16:31:52:833 -> 2444.00
16:31:52:833 -> 2438.00
16:31:52:833 -> 2400.00
16:31:52:833 -> 2344.00
16:31:52:833 -> 2364.00
16:31:52:833 -> 2389.00
16:31:52:833 -> 2409.00
16:31:52:833 -> 2440.00
16:31:52:833 -> 2438.00
16:31:52:833 -> 2421.00
16:31:52:833 -> 2420.00
16:31:52:833 -> 2480.00
16:31:52:833 -> 2481.00
16:31:52:833 -> 2468.00
16:31:52:833 -> 2421.00
16:31:52:833 -> 2455.00
16:31:52:833 -> 2463.00
16:31:52:833 -> 2450.00
16:31:52:833 -> 2464.00
16:31:52:833 -> 2388.00
16:31:52:833 -> 2382.00
16:31:52:833 -> 2368.00
16:31:52:833 -> 2434.00
16:31:52:833 -> 2428.00
16:31:52:833 -> 2438.00
16:31:52:833 -> 2458.00
16:31:52:833 -> 2447.00
16:31:52:833 -> 2440.00
16:31:52:833 -> 2409.00
16:31:52:833 -> 2454.00
16:31:52:833 -> 2417.00
16:31:52:833 -> 2444.00
16:31:52:833 -> 2432.00
16:31:52:833 -> 2411.00
16:31:52:833 -> 2393.00
16:31:52:833 -> 2362.00
16:31:52:833 -> 2383.00
16:31:52:833 -> 2414.00
16:31:52:833 -> 2376.00
16:31:52:833 -> 2402.00
16:31:52:833 -> 2426.00
16:31:52:833 -> 2442.00
16:31:52:833 -> 2449.00
16:31:52:833 -> 2472.00
16:31:52:833 -> 2468.00
16:31:52:833 -> 2434.00
16:31:52:833 -> 2426.00
16:31:52:833 -> 2494.00
16:31:52:894 -> 2476.00
16:31:52:894 -> 2454.00
16:31:52:894 -> 2432.00
16:31:52:894 -> 2428.00
16:31:52:894 -> 2410.00
16:31:52:894 -> 2395.00
16:31:52:894 -> 2415.00
16:31:52:894 -> 2438.00
16:31:52:894 -> 2423.00
16:31:52:894 -> 2428.00
16:31:52:894 -> 2431.00
16:31:52:894 -> 2427.00
16:31:52:894 -> 2431.00
16:31:52:894 -> 2446.00
16:31:52:894 -> 2466.00
16:31:52:894 -> 2472.00
16:31:52:894 -> 2462.00
16:31:52:894 -> 2480.00
16:31:52:894 -> 2423.00
16:31:52:894 -> 2439.00
16:31:52:894 -> 2439.00
16:31:52:894 -> 2415.00
16:31:52:894 -> 2432.00
16:31:52:894 -> 2399.00
16:31:52:894 -> 2427.00
16:31:52:894 -> 2425.00
16:31:52:894 -> 2411.00
16:31:52:894 -> 2443.00
16:31:52:894 -> 2448.00
16:31:52:894 -> 2458.00
16:31:52:894 -> 2487.00
16:31:52:894 -> 2440.00
16:31:52:894 -> 2476.00
16:31:52:894 -> 2462.00
16:31:52:894 -> 2477.00
16:31:52:894 -> 2465.00
16:31:52:894 -> 2468.00
16:31:52:894 -> 2448.00
16:31:52:894 -> 2377.00
16:31:52:894 -> 2367.00
16:31:52:894 -> 2372.00
16:31:52:894 -> 2411.00
16:31:52:894 -> 2422.00
16:31:52:894 -> 2424.00
16:31:52:894 -> 2428.00
16:31:52:894 -> 2454.00
16:31:52:894 -> 2452.00
16:31:52:894 -> 2442.00
16:31:52:894 -> 2461.00
16:31:52:894 -> 2458.00
16:31:52:894 -> 2450.00
16:31:52:929 -> 2443.00
16:31:52:929 -> 2437.00
16:31:52:929 -> 2406.00
16:31:52:929 -> 2419.00
16:31:52:929 -> 2401.00
16:31:52:929 -> 2409.00
16:31:52:929 -> 2431.00
16:31:52:929 -> 2425.00
16:31:52:929 -> 2441.00
16:31:52:929 -> 2435.00
16:31:52:929 -> 2428.00
16:31:52:929 -> 2436.00
16:31:52:929 -> 2469.00
16:31:52:929 -> 2501.00
16:31:52:929 -> 2481.00
16:31:52:929 -> 2465.00
16:31:52:929 -> 2463.00
16:31:52:929 -> 2443.00
16:31:52:929 -> 2445.00
16:31:52:929 -> 2425.00
16:31:52:929 -> 2455.00
16:31:52:929 -> 2433.00
16:31:52:929 -> 2343.00
16:31:52:929 -> 2396.00
16:31:52:929 -> 2398.00
16:31:52:929 -> 2411.00
16:31:52:929 -> 2427.00
16:31:52:929 -> 2435.00
16:31:52:929 -> 2434.00
16:31:52:929 -> 2427.00
16:31:52:929 -> 2445.00
16:31:52:929 -> 2440.00
16:31:52:929 -> 2447.00
16:31:52:929 -> 2448.00
16:31:52:939 -> 2442.00
16:31:52:939 -> 2431.00
16:31:52:939 -> 2428.00
16:31:52:939 -> 2415.00
16:31:52:939 -> 2403.00
16:31:52:939 -> 2446.00
16:31:52:939 -> 2414.00
16:31:52:939 -> 2420.00
16:31:52:947 -> 2438.00
16:31:52:947 -> 2457.00
16:31:52:947 -> 2450.00
16:31:52:947 -> 2449.00
16:31:52:947 -> 2459.00
16:31:52:947 -> 2493.00
16:31:52:947 -> 2471.00
16:31:52:953 -> 2493.00
16:31:52:953 -> 2477.00
16:31:52:953 -> 2463.00
16:31:52:953 -> 2473.00
16:31:52:953 -> 2455.00
16:31:52:957 -> 2405.00
16:31:52:957 -> 2386.00
16:31:52:957 -> 2439.00
16:31:52:965 -> 2415.00
16:31:52:965 -> 2420.00
16:31:52:965 -> 2439.00
16:31:52:965 -> 2421.00
16:31:52:965 -> 2412.00
16:31:52:965 -> 2443.00
16:31:52:965 -> 2465.00
16:31:52:965 -> 2455.00
16:31:52:992 -> 2447.00
16:31:52:992 -> 2444.00
16:31:52:992 -> 2456.00
16:31:52:992 -> 2439.00
16:31:52:992 -> 2419.00
16:31:52:992 -> 2434.00
16:31:52:992 -> 2408.00
16:31:52:992 -> 2431.00
16:31:52:992 -> 2422.00
16:31:52:992 -> 2424.00
16:31:52:992 -> 2426.00
16:31:52:992 -> 2446.00
16:31:52:992 -> 2442.00
16:31:52:992 -> 2446.00
16:31:52:992 -> 2417.00
16:31:52:992 -> 2440.00
16:31:52:992 -> 2472.00
16:31:52:992 -> 2464.00
16:31:52:992 -> 2448.00
16:31:52:992 -> 2453.00
16:31:52:992 -> 2446.00
16:31:52:992 -> 2418.00
16:31:52:993 -> 2383.00
16:31:52:994 -> 2407.00
16:31:52:995 -> 2401.00
16:31:52:996 -> 2426.00
16:31:52:997 -> 2422.00
16:31:52:998 -> 2430.00
16:31:53:000 -> 2447.00
16:31:53:001 -> 2405.00
16:31:53:002 -> 2421.00
16:31:53:003 -> 2442.00
16:31:53:007 -> 2452.00
16:31:53:007 -> 2481.00
16:31:53:015 -> 2465.00
16:31:53:015 -> 2452.00
16:31:53:015 -> 2454.00
16:31:53:015 -> 2448.00
16:31:53:015 -> 2443.00
16:31:53:015 -> 2446.00
16:31:53:015 -> 2373.00
16:31:53:015 -> 2386.00
16:31:53:016 -> 2429.00
16:31:53:024 -> 2424.00
16:31:53:024 -> 2434.00
16:31:53:024 -> 2439.00
16:31:53:024 -> 2446.00
16:31:53:024 -> 2427.00
16:31:53:040 -> 2447.00
16:31:53:040 -> 2472.00
16:31:53:040 -> 2476.00
16:31:53:040 -> 2417.00
16:31:53:040 -> 2425.00
16:31:53:040 -> 2398.00
16:31:53:040 -> 2414.00
16:31:53:040 -> 2378.00
16:31:53:040 -> 2390.00
16:31:53:040 -> 2380.00
16:31:53:040 -> 2385.00
16:31:53:040 -> 2415.00
16:31:53:040 -> 2450.00
16:31:53:040 -> 2447.00
16:31:53:044 -> 2436.00
16:31:53:044 -> 2443.00
16:31:53:044 -> 2456.00
16:31:53:044 -> 2491.00
16:31:53:050 -> 2513.00
16:31:53:050 -> 2495.00
16:31:53:050 -> 2475.00
16:31:53:050 -> 2487.00
16:31:53:050 -> 2465.00
16:31:53:052 -> 2463.00
16:31:53:072 -> 2463.00
16:31:53:072 -> 2476.00
16:31:53:072 -> 2389.00
16:31:53:072 -> 2376.00
16:31:53:072 -> 2416.00
16:31:53:072 -> 2420.00
16:31:53:072 -> 2442.00
16:31:53:072 -> 2445.00
16:31:53:072 -> 2453.00
16:31:53:072 -> 2461.00
16:31:53:072 -> 2465.00
16:31:53:072 -> 2431.00
16:31:53:072 -> 2458.00
16:31:53:072 -> 2470.00
16:31:53:072 -> 2457.00
16:31:53:072 -> 2457.00
16:31:53:072 -> 2457.00
16:31:53:072 -> 2415.00
16:31:53:081 -> 2408.00
16:31:53:081 -> 2403.00
16:31:53:081 -> 2430.00
16:31:53:081 -> 2433.00
16:31:53:081 -> 2422.00
16:31:53:081 -> 2432.00
16:31:53:081 -> 2438.00
16:31:53:089 -> 2419.00
16:31:53:089 -> 2405.00
16:31:53:089 -> 2443.00
16:31:53:089 -> 2479.00
16:31:53:089 -> 2468.00
16:31:53:089 -> 2450.00
16:31:53:089 -> 2458.00
16:31:53:096 -> 2425.00
16:31:53:096 -> 2443.00
16:31:53:096 -> 2438.00
16:31:53:096 -> 2406.00
16:31:53:096 -> 2427.00
16:31:53:097 -> 2408.00
16:31:53:098 -> 2408.00
16:31:53:098 -> 2423.00
16:31:53:099 -> 2428.00
16:31:53:101 -> 2413.00
16:31:53:104 -> 2408.00
16:31:53:104 -> 2419.00
16:31:53:109 -> 2457.00
16:31:53:109 -> 2468.00
16:31:53:109 -> 2463.00
16:31:53:109 -> 2458.00
16:31:53:111 -> 2456.00
16:31:53:111 -> 2449.00
16:31:53:115 -> 2394.00
16:31:53:115 -> 2431.00
16:31:53:115 -> 2391.00
16:31:53:117 -> 2366.00
16:31:53:117 -> 2375.00
16:31:53:124 -> 2393.00
16:31:53:124 -> 2425.00
16:31:53:124 -> 2435.00
16:31:53:124 -> 2489.00
16:31:53:124 -> 2447.00
16:31:53:126 -> 2434.00
16:31:53:126 -> 2457.00
16:31:53:126 -> 2486.00
16:31:53:132 -> 2497.00
16:31:53:132 -> 2485.00
16:31:53:132 -> 2467.00
16:31:53:132 -> 2458.00
16:31:53:132 -> 2412.00
16:31:53:133 -> 2393.00
16:31:53:136 -> 2400.00
16:31:53:136 -> 2413.00
16:31:53:137 -> 2402.00
16:31:53:141 -> 2426.00
16:31:53:141 -> 2440.00
16:31:53:141 -> 2460.00
16:31:53:141 -> 2469.00
16:31:53:143 -> 2468.00
16:31:53:144 -> 2482.00
16:31:53:148 -> 2458.00
16:31:53:148 -> 2462.00
16:31:53:148 -> 2463.00
16:31:53:149 -> 2452.00
16:31:53:151 -> 2461.00
16:31:53:155 -> 2442.00
16:31:53:155 -> 2452.00
16:31:53:155 -> 2417.00
16:31:53:155 -> 2379.00
16:31:53:157 -> 2451.00
16:31:53:157 -> 2438.00
16:31:53:158 -> 2415.00
16:31:53:159 -> 2425.00
16:31:53:160 -> 2435.00
16:31:53:166 -> 2451.00
16:31:53:166 -> 2469.00
16:31:53:166 -> 2443.00
16:31:53:166 -> 2459.00
16:31:53:166 -> 2429.00
16:31:53:168 -> 2433.00
16:31:53:168 -> 2441.00
16:31:53:172 -> 2412.00
16:31:53:172 -> 2418.00
16:31:53:174 -> 2418.00
16:31:53:174 -> 2384.00
16:31:53:175 -> 2363.00
16:31:53:176 -> 2365.00
16:31:53:178 -> 2407.00
16:31:53:179 -> 2445.00
16:31:53:179 -> 2437.00
16:31:53:186 -> 2447.00
16:31:53:186 -> 2420.00
16:31:53:186 -> 2455.00
16:31:53:186 -> 2443.00
16:31:53:190 -> 2482.00
16:31:53:190 -> 2502.00
16:31:53:190 -> 2480.00
16:31:53:190 -> 2462.00
16:31:53:190 -> 2451.00
16:31:53:192 -> 2447.00
16:31:53:192 -> 2443.00
16:31:53:193 -> 2419.00
16:31:53:195 -> 2388.00
16:31:53:196 -> 2381.00
16:31:53:198 -> 2386.00
16:31:53:199 -> 2384.00
16:31:53:200 -> 2425.00
16:31:53:201 -> 2409.00
16:31:53:202 -> 2432.00
16:31:53:203 -> 2464.00
16:31:53:204 -> 2434.00
16:31:53:205 -> 2451.00
16:31:53:207 -> 2475.00
16:31:53:208 -> 2462.00
16:31:53:209 -> 2452.00
16:31:53:210 -> 2446.00
16:31:53:211 -> 2456.00
16:31:53:213 -> 2413.00
16:31:53:214 -> 2411.00
16:31:53:216 -> 2418.00
16:31:53:218 -> 2457.00
16:31:53:218 -> 2440.00
16:31:53:219 -> 2424.00
16:31:53:223 -> 2424.00
16:31:53:223 -> 2441.00
16:31:53:223 -> 2437.00
16:31:53:224 -> 2416.00
16:31:53:225 -> 2407.00
16:31:53:227 -> 2483.00
16:31:53:227 -> 2455.00
16:31:53:228 -> 2453.00
16:31:53:229 -> 2453.00
16:31:53:230 -> 2451.00
16:31:53:232 -> 2447.00
16:31:53:233 -> 2431.00
16:31:53:234 -> 2397.00
16:31:53:235 -> 2378.00
16:31:53:236 -> 2419.00
16:31:53:238 -> 2429.00
16:31:53:239 -> 2442.00
16:31:53:240 -> 2456.00
16:31:53:241 -> 2437.00
16:31:53:243 -> 2428.00
16:31:53:245 -> 2437.00
16:31:53:245 -> 2489.00
16:31:53:249 -> 2499.00
16:31:53:249 -> 2477.00
16:31:53:249 -> 2447.00
16:31:53:250 -> 2474.00
16:31:53:254 -> 2454.00
16:31:53:254 -> 2427.00
16:31:53:254 -> 2410.00
16:31:53:262 -> 2401.00
16:31:53:262 -> 2431.00
16:31:53:262 -> 2404.00
16:31:53:262 -> 2434.00
16:31:53:262 -> 2449.00
16:31:53:262 -> 2419.00
16:31:53:262 -> 2407.00
16:31:53:264 -> 2481.00
16:31:53:264 -> 2448.00
16:31:53:265 -> 2465.00
16:31:53:266 -> 2458.00
16:31:53:267 -> 2461.00
16:31:53:269 -> 2462.00
16:31:53:270 -> 2441.00
16:31:53:271 -> 2421.00
16:31:53:272 -> 2418.00
16:31:53:273 -> 2423.00
16:31:53:274 -> 2417.00
16:31:53:276 -> 2385.00
16:31:53:277 -> 2413.00
16:31:53:279 -> 2433.00
16:31:53:280 -> 2436.00
16:31:53:289 -> 2455.00
16:31:53:289 -> 2470.00
16:31:53:289 -> 2434.00
16:31:53:289 -> 2456.00
16:31:53:289 -> 2492.00
16:31:53:289 -> 2478.00
16:31:53:321 -> 2453.00
16:31:53:321 -> 2468.00
16:31:53:321 -> 2455.00
16:31:53:324 -> 2457.00
16:31:53:324 -> 2434.00
16:31:53:324 -> 2435.00
16:31:53:324 -> 2338.00
16:31:53:324 -> 2357.00
16:31:53:324 -> 2409.00
16:31:53:324 -> 2422.00
16:31:53:324 -> 2455.00
16:31:53:324 -> 2461.00
16:31:53:324 -> 2450.00
16:31:53:324 -> 2445.00
16:31:53:324 -> 2461.00
16:31:53:324 -> 2494.00
16:31:53:324 -> 2445.00
16:31:53:324 -> 2485.00
16:31:53:324 -> 2472.00
16:31:53:324 -> 2460.00
16:31:53:324 -> 2425.00
16:31:53:324 -> 2424.00
16:31:53:324 -> 2427.00
16:31:53:324 -> 2409.00
16:31:53:324 -> 2429.00
16:31:53:324 -> 2398.00
16:31:53:324 -> 2432.00
16:31:53:324 -> 2432.00
16:31:53:324 -> 2462.00
16:31:53:324 -> 2424.00
16:31:53:324 -> 2467.00
16:31:53:328 -> 2465.00
16:31:53:328 -> 2448.00
16:31:53:328 -> 2453.00
16:31:53:328 -> 2454.00
16:31:53:343 -> 2443.00
16:31:53:343 -> 2465.00
16:31:53:343 -> 2492.00
16:31:53:343 -> 2474.00
16:31:53:343 -> 2426.00
16:31:53:343 -> 2399.00
16:31:53:343 -> 2414.00
16:31:53:343 -> 2430.00
16:31:53:343 -> 2438.00
16:31:53:343 -> 2480.00
16:31:53:366 -> 2454.00
16:31:53:366 -> 2431.00
16:31:53:366 -> 2443.00
16:31:53:366 -> 2411.00
16:31:53:366 -> 2427.00
16:31:53:366 -> 2457.00
16:31:53:366 -> 2465.00
16:31:53:366 -> 2453.00
16:31:53:366 -> 2465.00
16:31:53:366 -> 2469.00
16:31:53:366 -> 2421.00
16:31:53:366 -> 2382.00
16:31:53:366 -> 2411.00
16:31:53:366 -> 2397.00
16:31:53:366 -> 2429.00
16:31:53:366 -> 2443.00
16:31:53:366 -> 2445.00
16:31:53:366 -> 2454.00
16:31:53:366 -> 2441.00
16:31:53:366 -> 2488.00
16:31:53:366 -> 2451.00
16:31:53:370 -> 2448.00
16:31:53:370 -> 2478.00
16:31:53:370 -> 2476.00
16:31:53:370 -> 2468.00
16:31:53:379 -> 2460.00
16:31:53:379 -> 2426.00
16:31:53:379 -> 2430.00
16:31:53:379 -> 2400.00
16:31:53:379 -> 2487.00
16:31:53:379 -> 2429.00
16:31:53:379 -> 2436.00
16:31:53:379 -> 2449.00
16:31:53:386 -> 2443.00
16:31:53:386 -> 2428.00
16:31:53:386 -> 2431.00
16:31:53:386 -> 2470.00
16:31:53:386 -> 2485.00
16:31:53:386 -> 2486.00
16:31:53:388 -> 2492.00
16:31:53:390 -> 2465.00
16:31:53:390 -> 2450.00
16:31:53:392 -> 2465.00
16:31:53:392 -> 2442.00
16:31:53:394 -> 2401.00
16:31:53:395 -> 2335.00
16:31:53:396 -> 2389.00
16:31:53:397 -> 2433.00
16:31:53:398 -> 2432.00
16:31:53:399 -> 2432.00
16:31:53:400 -> 2434.00
16:31:53:402 -> 2427.00
16:31:53:403 -> 2413.00
16:31:53:404 -> 2420.00
16:31:53:405 -> 2495.00
16:31:53:406 -> 2510.00
16:31:53:408 -> 2468.00
16:31:53:409 -> 2457.00
16:31:53:410 -> 2440.00
16:31:53:411 -> 2423.00
16:31:53:412 -> 2418.00
16:31:53:414 -> 2394.00
16:31:53:415 -> 2372.00
16:31:53:416 -> 2453.00
16:31:53:417 -> 2432.00
16:31:53:419 -> 2416.00
16:31:53:420 -> 2436.00
16:31:53:421 -> 2412.00
16:31:53:422 -> 2419.00
16:31:53:423 -> 2450.00
16:31:53:424 -> 2476.00
16:31:53:425 -> 2449.00
16:31:53:427 -> 2493.00
16:31:53:428 -> 2513.00
16:31:53:429 -> 2497.00
16:31:53:430 -> 2500.00
16:31:53:431 -> 2482.00
16:31:53:433 -> 2468.00
16:31:53:435 -> 2427.00
16:31:53:441 -> 2415.00
16:31:53:441 -> 2411.00
16:31:53:441 -> 2444.00
16:31:53:447 -> 2438.00
16:31:53:447 -> 2434.00
16:31:53:447 -> 2465.00
16:31:53:447 -> 2464.00
16:31:53:447 -> 2436.00
16:31:53:447 -> 2424.00
16:31:53:447 -> 2442.00
16:31:53:447 -> 2462.00
16:31:53:457 -> 2464.00
16:31:53:457 -> 2461.00
16:31:53:457 -> 2421.00
16:31:53:457 -> 2428.00
16:31:53:457 -> 2412.00
16:31:53:457 -> 2401.00
16:31:53:457 -> 2414.00
16:31:53:457 -> 2405.00
16:31:53:459 -> 2435.00
16:31:53:459 -> 2460.00
16:31:53:460 -> 2454.00
16:31:53:470 -> 2484.00
16:31:53:470 -> 2485.00
16:31:53:470 -> 2462.00
16:31:53:470 -> 2454.00
16:31:53:470 -> 2465.00
16:31:53:470 -> 2505.00
16:31:53:470 -> 2479.00
16:31:53:470 -> 2472.00
16:31:53:472 -> 2467.00
16:31:53:472 -> 2446.00
16:31:53:474 -> 2418.00
16:31:53:474 -> 2388.00
16:31:53:475 -> 2432.00
16:31:53:477 -> 2411.00
16:31:53:478 -> 2419.00
16:31:53:480 -> 2431.00
16:31:53:480 -> 2436.00
16:31:53:481 -> 2431.00
16:31:53:483 -> 2443.00
16:31:53:484 -> 2492.00
16:31:53:485 -> 2441.00
16:31:53:486 -> 2436.00
16:31:53:487 -> 2476.00
16:31:53:490 -> 2464.00
16:31:53:505 -> 2461.00
16:31:53:505 -> 2453.00
16:31:53:505 -> 2473.00
16:31:53:505 -> 2457.00
16:31:53:505 -> 2396.00
16:31:53:505 -> 2386.00
16:31:53:505 -> 2449.00
16:31:53:505 -> 2449.00
16:31:53:505 -> 2460.00
16:31:53:505 -> 2462.00
16:31:53:505 -> 2488.00
16:31:53:505 -> 2491.00
16:31:53:505 -> 2461.00
16:31:53:523 -> 2438.00
16:31:53:523 -> 2452.00
16:31:53:523 -> 2458.00
16:31:53:523 -> 2439.00
16:31:53:523 -> 2432.00
16:31:53:523 -> 2456.00
16:31:53:523 -> 2433.00
16:31:53:523 -> 2433.00
16:31:53:523 -> 2416.00
16:31:53:523 -> 2411.00
16:31:53:523 -> 2467.00
16:31:53:523 -> 2446.00
16:31:53:523 -> 2455.00
16:31:53:523 -> 2483.00
16:31:53:523 -> 2437.00
16:31:53:523 -> 2450.00
16:31:53:525 -> 2491.00
16:31:53:526 -> 2527.00
16:31:53:527 -> 2495.00
16:31:53:528 -> 2470.00
16:31:53:529 -> 2464.00
16:31:53:531 -> 2486.00
16:31:53:532 -> 2424.00
16:31:53:534 -> 2412.00
16:31:53:534 -> 2426.00
16:31:53:535 -> 2415.00
16:31:53:536 -> 2395.00
16:31:53:537 -> 2420.00
16:31:53:538 -> 2434.00
16:31:53:540 -> 2451.00
16:31:53:541 -> 2425.00
16:31:53:542 -> 2421.00
16:31:53:543 -> 2452.00
16:31:53:544 -> 2466.00
16:31:53:546 -> 2489.00
16:31:53:548 -> 2454.00
16:31:53:550 -> 2481.00
16:31:53:550 -> 2464.00
16:31:53:551 -> 2438.00
16:31:53:552 -> 2434.00
16:31:53:553 -> 2426.00
16:31:53:554 -> 2375.00
16:31:53:555 -> 2441.00
16:31:53:556 -> 2425.00
16:31:53:558 -> 2448.00
16:31:53:559 -> 2449.00
16:31:53:560 -> 2454.00
16:31:53:561 -> 2462.00
16:31:53:562 -> 2485.00
16:31:53:563 -> 2460.00
16:31:53:569 -> 2484.00
16:31:53:569 -> 2455.00
16:31:53:569 -> 2473.00
16:31:53:569 -> 2485.00
16:31:53:569 -> 2484.00
16:31:53:571 -> 2452.00
16:31:53:575 -> 2463.00
16:31:53:578 -> 2448.00
16:31:53:578 -> 2396.00
16:31:53:578 -> 2386.00
16:31:53:578 -> 2412.00
16:31:53:578 -> 2394.00
16:31:53:582 -> 2409.00
16:31:53:582 -> 2432.00
16:31:53:582 -> 2435.00
16:31:53:584 -> 2394.00
16:31:53:585 -> 2460.00
16:31:53:585 -> 2479.00
16:31:53:589 -> 2498.00
16:31:53:589 -> 2468.00
16:31:53:589 -> 2466.00
16:31:53:592 -> 2455.00
16:31:53:592 -> 2465.00
16:31:53:592 -> 2432.00
16:31:53:603 -> 2426.00
16:31:53:603 -> 2403.00
16:31:53:603 -> 2398.00
16:31:53:603 -> 2421.00
16:31:53:603 -> 2436.00
16:31:53:603 -> 2456.00
16:31:53:603 -> 2468.00
16:31:53:603 -> 2439.00
16:31:53:603 -> 2439.00
16:31:53:604 -> 2494.00
16:31:53:605 -> 2507.00
16:31:53:606 -> 2449.00
16:31:53:607 -> 2451.00
16:31:53:609 -> 2451.00
16:31:53:610 -> 2458.00
16:31:53:611 -> 2453.00
16:31:53:612 -> 2440.00
16:31:53:613 -> 2406.00
16:31:53:615 -> 2409.00
16:31:53:616 -> 2406.00
16:31:53:617 -> 2388.00
16:31:53:618 -> 2429.00
16:31:53:619 -> 2430.00
16:31:53:620 -> 2448.00
16:31:53:622 -> 2420.00
16:31:53:623 -> 2450.00
16:31:53:624 -> 2456.00
16:31:53:625 -> 2433.00
16:31:53:626 -> 2463.00
16:31:53:628 -> 2467.00
16:31:53:629 -> 2506.00
16:31:53:630 -> 2474.00
16:31:53:631 -> 2473.00
16:31:53:632 -> 2420.00
16:31:53:634 -> 2426.00
16:31:53:635 -> 2405.00
16:31:53:636 -> 2440.00
16:31:53:637 -> 2435.00
16:31:53:639 -> 2441.00
16:31:53:640 -> 2457.00
16:31:53:641 -> 2466.00
16:31:53:642 -> 2437.00
16:31:53:643 -> 2455.00
16:31:53:646 -> 2471.00
16:31:53:646 -> 2483.00
16:31:53:657 -> 2485.00
16:31:53:657 -> 2479.00
16:31:53:665 -> 2438.00
16:31:53:665 -> 2475.00
16:31:53:665 -> 2439.00
16:31:53:665 -> 2413.00
16:31:53:665 -> 2419.00
16:31:53:665 -> 2422.00
16:31:53:665 -> 2412.00
16:31:53:665 -> 2417.00
16:31:53:671 -> 2414.00
16:31:53:671 -> 2420.00
16:31:53:671 -> 2401.00
16:31:53:671 -> 2394.00
16:31:53:671 -> 2440.00
16:31:53:671 -> 2474.00
16:31:53:671 -> 2480.00
16:31:53:671 -> 2437.00
16:31:53:673 -> 2454.00
16:31:53:673 -> 2473.00
16:31:53:673 -> 2456.00
16:31:53:673 -> 2440.00
16:31:53:673 -> 2400.00
16:31:53:677 -> 2429.00
16:31:53:677 -> 2402.00
16:31:53:677 -> 2418.00
16:31:53:678 -> 2432.00
16:31:53:680 -> 2433.00
16:31:53:681 -> 2437.00
16:31:53:682 -> 2416.00
16:31:53:683 -> 2431.00
16:31:53:684 -> 2439.00
16:31:53:685 -> 2468.00
16:31:53:686 -> 2466.00
16:31:53:687 -> 2470.00
16:31:53:720 -> 2468.00
16:31:53:720 -> 2466.00
16:31:53:720 -> 2448.00
16:31:53:720 -> 2443.00
16:31:53:720 -> 2449.00
16:31:53:720 -> 2410.00
16:31:53:720 -> 2416.00
16:31:53:720 -> 2423.00
16:31:53:720 -> 2433.00
16:31:53:720 -> 2440.00
16:31:53:720 -> 2445.00
16:31:53:720 -> 2426.00
16:31:53:720 -> 2425.00
16:31:53:720 -> 2452.00
16:31:53:720 -> 2511.00
16:31:53:720 -> 2467.00
16:31:53:720 -> 2443.00
16:31:53:720 -> 2457.00
16:31:53:720 -> 2455.00
16:31:53:720 -> 2420.00
16:31:53:720 -> 2423.00
16:31:53:720 -> 2410.00
16:31:53:720 -> 2480.00
16:31:53:720 -> 2405.00
16:31:53:720 -> 2431.00
16:31:53:720 -> 2429.00
16:31:53:720 -> 2475.00
16:31:53:775 -> 2459.00
16:31:53:775 -> 2472.00
16:31:53:775 -> 2445.00
16:31:53:775 -> 2483.00
16:31:53:775 -> 2471.00
16:31:53:775 -> 2458.00
16:31:53:775 -> 2471.00
16:31:53:775 -> 2469.00
16:31:53:775 -> 2433.00
16:31:53:775 -> 2415.00
16:31:53:775 -> 2410.00
16:31:53:775 -> 2428.00
16:31:53:793 -> 2418.00
16:31:53:793 -> 2429.00
16:31:53:793 -> 2421.00
16:31:53:793 -> 2449.00
16:31:53:793 -> 2459.00
16:31:53:793 -> 2429.00
16:31:53:793 -> 2449.00
16:31:53:793 -> 2450.00
16:31:53:793 -> 2495.00
16:31:53:793 -> 2478.00
16:31:53:793 -> 2466.00
16:31:53:793 -> 2460.00
16:31:53:793 -> 2459.00
16:31:53:793 -> 2464.00
16:31:53:793 -> 2434.00
16:31:53:793 -> 2415.00
16:31:53:793 -> 2379.00
16:31:53:793 -> 2429.00
16:31:53:793 -> 2398.00
16:31:53:793 -> 2422.00
16:31:53:793 -> 2428.00
16:31:53:793 -> 2462.00
16:31:53:793 -> 2473.00
16:31:53:793 -> 2500.00
16:31:53:793 -> 2474.00
16:31:53:793 -> 2452.00
16:31:53:793 -> 2469.00
16:31:53:793 -> 2497.00
16:31:53:793 -> 2484.00
16:31:53:793 -> 2468.00
16:31:53:793 -> 2460.00
16:31:53:793 -> 2466.00
16:31:53:793 -> 2425.00
16:31:53:793 -> 2395.00
16:31:53:793 -> 2396.00
16:31:53:793 -> 2412.00
16:31:53:793 -> 2440.00
16:31:53:793 -> 2435.00
16:31:53:793 -> 2442.00
16:31:53:793 -> 2416.00
16:31:53:793 -> 2423.00
16:31:53:793 -> 2456.00
16:31:53:793 -> 2465.00
16:31:53:793 -> 2467.00
16:31:53:793 -> 2460.00
16:31:53:793 -> 2462.00
16:31:53:793 -> 2460.00
16:31:53:793 -> 2441.00
16:31:53:793 -> 2424.00
16:31:53:793 -> 2430.00
16:31:53:812 -> 2426.00
16:31:53:812 -> 2423.00
16:31:53:812 -> 2429.00
16:31:53:812 -> 2425.00
16:31:53:812 -> 2437.00
16:31:53:812 -> 2443.00
16:31:53:812 -> 2461.00
16:31:53:812 -> 2470.00
16:31:53:812 -> 2439.00
16:31:53:812 -> 2420.00
16:31:53:812 -> 2423.00
16:31:53:812 -> 2432.00
16:31:53:812 -> 2418.00
16:31:53:812 -> 2408.00
16:31:53:812 -> 2389.00
16:31:53:875 -> 2409.00
16:31:53:875 -> 2439.00
16:31:53:875 -> 2416.00
16:31:53:875 -> 2444.00
16:31:53:875 -> 2427.00
16:31:53:875 -> 2435.00
16:31:53:875 -> 2456.00
16:31:53:875 -> 2441.00
16:31:53:875 -> 2439.00
16:31:53:875 -> 2480.00
16:31:53:875 -> 2485.00
16:31:53:887 -> 2525.00
16:31:53:887 -> 2516.00
16:31:53:887 -> 2497.00
16:31:53:887 -> 2494.00
16:31:53:887 -> 2491.00
16:31:53:887 -> 2475.00
16:31:53:887 -> 2471.00
16:31:53:887 -> 2448.00
16:31:53:887 -> 2432.00
16:31:53:887 -> 2404.00
16:31:53:887 -> 2407.00
16:31:53:887 -> 2448.00
16:31:53:887 -> 2454.00
16:31:53:887 -> 2470.00
16:31:53:887 -> 2456.00
16:31:53:887 -> 2459.00
16:31:53:887 -> 2418.00
16:31:53:887 -> 2395.00
16:31:53:887 -> 2471.00
16:31:53:887 -> 2481.00
16:31:53:887 -> 2474.00
16:31:53:887 -> 2473.00
16:31:53:887 -> 2447.00
16:31:53:887 -> 2431.00
16:31:53:887 -> 2424.00
16:31:53:887 -> 2469.00
16:31:53:887 -> 2429.00
16:31:53:887 -> 2435.00
16:31:53:887 -> 2446.00
16:31:53:887 -> 2456.00
16:31:53:887 -> 2460.00
16:31:53:887 -> 2454.00
16:31:53:887 -> 2482.00
16:31:53:887 -> 2436.00
16:31:53:887 -> 2437.00
16:31:53:887 -> 2448.00
16:31:53:887 -> 2488.00
16:31:53:887 -> 2469.00
16:31:53:887 -> 2459.00
16:31:53:887 -> 2456.00
16:31:53:887 -> 2422.00
16:31:53:887 -> 2418.00
16:31:53:887 -> 2403.00
16:31:53:887 -> 2416.00
16:31:53:892 -> 2441.00
16:31:53:892 -> 2441.00
16:31:53:892 -> 2457.00
16:31:53:892 -> 2428.00
16:31:53:892 -> 2441.00
16:31:53:892 -> 2452.00
16:31:53:892 -> 2493.00
16:31:53:892 -> 2491.00
16:31:53:892 -> 2474.00
16:31:53:892 -> 2493.00
16:31:53:894 -> 2478.00
16:31:53:894 -> 2443.00
16:31:53:894 -> 2447.00
16:31:53:894 -> 2443.00
16:31:53:894 -> 2433.00
16:31:53:896 -> 2430.00
16:31:53:897 -> 2422.00
16:31:53:898 -> 2422.00
16:31:53:899 -> 2447.00
16:31:53:900 -> 2444.00
16:31:53:901 -> 2468.00
16:31:53:903 -> 2438.00
16:31:53:904 -> 2478.00
16:31:53:905 -> 2471.00
16:31:53:906 -> 2472.00
16:31:53:907 -> 2503.00
16:31:53:908 -> 2480.00
16:31:53:910 -> 2464.00
16:31:53:911 -> 2430.00
16:31:53:912 -> 2415.00
16:31:53:913 -> 2395.00
16:31:53:914 -> 2379.00
16:31:53:916 -> 2394.00
16:31:53:917 -> 2412.00
16:31:53:918 -> 2418.00
16:31:53:919 -> 2447.00
16:31:53:920 -> 2453.00
16:31:53:922 -> 2446.00
16:31:53:923 -> 2437.00
16:31:53:924 -> 2426.00
16:31:53:925 -> 2476.00
16:31:53:926 -> 2454.00
16:31:53:927 -> 2455.00
16:31:53:929 -> 2473.00
16:31:53:933 -> 2481.00
16:31:53:933 -> 2506.00
16:31:53:933 -> 2484.00
16:31:53:935 -> 2436.00
16:31:53:935 -> 2442.00
16:31:53:938 -> 2419.00
16:31:53:938 -> 2433.00
16:31:53:938 -> 2460.00
16:31:53:939 -> 2467.00
16:31:53:941 -> 2466.00
16:31:53:956 -> 2461.00
16:31:53:956 -> 2440.00
16:31:53:956 -> 2504.00
16:31:53:956 -> 2430.00
16:31:53:956 -> 2489.00
16:31:53:956 -> 2487.00
16:31:53:956 -> 2477.00
16:31:53:967 -> 2460.00
16:31:53:967 -> 2461.00
16:31:53:967 -> 2427.00
16:31:53:967 -> 2427.00
16:31:53:967 -> 2429.00
16:31:53:967 -> 2418.00
16:31:53:967 -> 2399.00
16:31:53:967 -> 2437.00
16:31:53:967 -> 2443.00
16:31:53:967 -> 2423.00
16:31:53:967 -> 2448.00
16:31:53:967 -> 2465.00
16:31:53:967 -> 2442.00
16:31:53:967 -> 2455.00
16:31:53:967 -> 2459.00
16:31:53:968 -> 2510.00
16:31:53:986 -> 2486.00
16:31:53:986 -> 2468.00
16:31:53:986 -> 2445.00
16:31:53:986 -> 2430.00
16:31:53:986 -> 2404.00
16:31:53:986 -> 2406.00
16:31:53:986 -> 2425.00
16:31:53:986 -> 2452.00
16:31:53:986 -> 2436.00
16:31:53:986 -> 2443.00
16:31:53:986 -> 2436.00
16:31:53:986 -> 2432.00
16:31:53:986 -> 2430.00
16:31:53:986 -> 2458.00
16:31:53:987 -> 2483.00
16:31:53:987 -> 2462.00
16:31:53:988 -> 2454.00
16:31:53:989 -> 2451.00
16:31:53:991 -> 2429.00
16:31:53:992 -> 2420.00
16:31:54:000 -> 2446.00
16:31:54:000 -> 2422.00
16:31:54:000 -> 2452.00
16:31:54:000 -> 2429.00
16:31:54:000 -> 2427.00
16:31:54:000 -> 2449.00
16:31:54:001 -> 2430.00
16:31:54:002 -> 2468.00
16:31:54:002 -> 2482.00
16:31:54:004 -> 2461.00
16:31:54:005 -> 2457.00
16:31:54:006 -> 2438.00
16:31:54:007 -> 2475.00
16:31:54:009 -> 2468.00
16:31:54:015 -> 2413.00
16:31:54:015 -> 2473.00
16:31:54:015 -> 2439.00
16:31:54:015 -> 2392.00
16:31:54:015 -> 2355.00
16:31:54:025 -> 2367.00
16:31:54:025 -> 2397.00
16:31:54:025 -> 2395.00
16:31:54:025 -> 2416.00
16:31:54:025 -> 2418.00
16:31:54:025 -> 2426.00
16:31:54:025 -> 2444.00
16:31:54:025 -> 2456.00
16:31:54:025 -> 2483.00
16:31:54:038 -> 2469.00
16:31:54:038 -> 2471.00
16:31:54:038 -> 2469.00
16:31:54:038 -> 2462.00
16:31:54:038 -> 2492.00
16:31:54:038 -> 2469.00
16:31:54:038 -> 2451.00
16:31:54:038 -> 2380.00
16:31:54:038 -> 2437.00
16:31:54:038 -> 2456.00
16:31:54:039 -> 2442.00
16:31:54:045 -> 2466.00
16:31:54:045 -> 2464.00
16:31:54:045 -> 2440.00
16:31:54:045 -> 2500.00
16:31:54:045 -> 2478.00
16:31:54:050 -> 2515.00
16:31:54:050 -> 2495.00
16:31:54:050 -> 2485.00
16:31:54:050 -> 2470.00
16:31:54:051 -> 2459.00
16:31:54:064 -> 2446.00
16:31:54:064 -> 2424.00
16:31:54:064 -> 2388.00
16:31:54:064 -> 2376.00
16:31:54:064 -> 2396.00
16:31:54:064 -> 2332.00
16:31:54:064 -> 2433.00
16:31:54:064 -> 2435.00
16:31:54:064 -> 2408.00
16:31:54:064 -> 2441.00
16:31:54:064 -> 2452.00
16:31:54:071 -> 2503.00
16:31:54:071 -> 2452.00
16:31:54:071 -> 2483.00
16:31:54:071 -> 2483.00
16:31:54:071 -> 2465.00
16:31:54:071 -> 2467.00
16:31:54:084 -> 2480.00
16:31:54:084 -> 2434.00
16:31:54:084 -> 2399.00
16:31:54:084 -> 2394.00
16:31:54:084 -> 2420.00
16:31:54:084 -> 2424.00
16:31:54:084 -> 2441.00
16:31:54:084 -> 2444.00
16:31:54:084 -> 2405.00
16:31:54:084 -> 2447.00
16:31:54:084 -> 2438.00
16:31:54:085 -> 2506.00
16:31:54:088 -> 2491.00
16:31:54:088 -> 2491.00
16:31:54:091 -> 2465.00
16:31:54:091 -> 2437.00
16:31:54:091 -> 2463.00
16:31:54:092 -> 2435.00
16:31:54:093 -> 2455.00
16:31:54:094 -> 2430.00
16:31:54:095 -> 2394.00
16:31:54:096 -> 2414.00
16:31:54:098 -> 2432.00
16:31:54:099 -> 2450.00
16:31:54:100 -> 2437.00
16:31:54:101 -> 2435.00
16:31:54:102 -> 2449.00
16:31:54:105 -> 2453.00
16:31:54:105 -> 2480.00
16:31:54:108 -> 2514.00
16:31:54:108 -> 2489.00
16:31:54:110 -> 2484.00
16:31:54:110 -> 2462.00
16:31:54:114 -> 2466.00
16:31:54:114 -> 2428.00
16:31:54:114 -> 2439.00
16:31:54:115 -> 2404.00
16:31:54:115 -> 2396.00
16:31:54:117 -> 2432.00
16:31:54:118 -> 2436.00
16:31:54:119 -> 2455.00
16:31:54:120 -> 2455.00
16:31:54:121 -> 2443.00
16:31:54:124 -> 2478.00
16:31:54:124 -> 2446.00
16:31:54:126 -> 2415.00
16:31:54:129 -> 2473.00
16:31:54:129 -> 2415.00
16:31:54:133 -> 2469.00
16:31:54:133 -> 2460.00
16:31:54:133 -> 2469.00
16:31:54:134 -> 2445.00
16:31:54:134 -> 2443.00
16:31:54:164 -> 2428.00
16:31:54:164 -> 2458.00
16:31:54:164 -> 2435.00
16:31:54:164 -> 2451.00
16:31:54:164 -> 2447.00
16:31:54:164 -> 2434.00
16:31:54:164 -> 2443.00
16:31:54:164 -> 2440.00
16:31:54:172 -> 2437.00
16:31:54:172 -> 2423.00
16:31:54:172 -> 2438.00
16:31:54:172 -> 2472.00
16:31:54:172 -> 2497.00
16:31:54:172 -> 2490.00
16:31:54:172 -> 2440.00
16:31:54:172 -> 2421.00
16:31:54:172 -> 2431.00
16:31:54:172 -> 2428.00
16:31:54:172 -> 2439.00
16:31:54:172 -> 2425.00
16:31:54:172 -> 2448.00
16:31:54:172 -> 2453.00
16:31:54:172 -> 2446.00
16:31:54:172 -> 2444.00
16:31:54:172 -> 2442.00
16:31:54:172 -> 2523.00
16:31:54:175 -> 2514.00
16:31:54:175 -> 2501.00
16:31:54:175 -> 2479.00
16:31:54:175 -> 2464.00
16:31:54:175 -> 2473.00
16:31:54:175 -> 2458.00
16:31:54:175 -> 2453.00
16:31:54:175 -> 2433.00
16:31:54:194 -> 2405.00
16:31:54:194 -> 2405.00
16:31:54:194 -> 2439.00
16:31:54:194 -> 2451.00
16:31:54:194 -> 2446.00
16:31:54:194 -> 2464.00
16:31:54:194 -> 2458.00
16:31:54:194 -> 2440.00
16:31:54:194 -> 2448.00
16:31:54:194 -> 2489.00
16:31:54:194 -> 2476.00
16:31:54:194 -> 2471.00
16:31:54:194 -> 2441.00
16:31:54:194 -> 2443.00
16:31:54:194 -> 2441.00
16:31:54:194 -> 2447.00
16:31:54:194 -> 2427.00
16:31:54:197 -> 2397.00
16:31:54:197 -> 2426.00
16:31:54:202 -> 2440.00
16:31:54:202 -> 2450.00
16:31:54:202 -> 2448.00
16:31:54:202 -> 2459.00
16:31:54:207 -> 2427.00
16:31:54:207 -> 2443.00
16:31:54:207 -> 2480.00
16:31:54:207 -> 2484.00
16:31:54:213 -> 2472.00
16:31:54:213 -> 2461.00
16:31:54:213 -> 2429.00
16:31:54:213 -> 2386.00
16:31:54:213 -> 2401.00
16:31:54:214 -> 2412.00
16:31:54:215 -> 2432.00
16:31:54:215 -> 2422.00
16:31:54:217 -> 2434.00
16:31:54:218 -> 2451.00
16:31:54:219 -> 2445.00
16:31:54:220 -> 2444.00
16:31:54:233 -> 2445.00
16:31:54:236 -> 2449.00
16:31:54:236 -> 2456.00
16:31:54:236 -> 2432.00
16:31:54:236 -> 2463.00
16:31:54:236 -> 2430.00
16:31:54:236 -> 2461.00
16:31:54:236 -> 2453.00
16:31:54:236 -> 2465.00
16:31:54:236 -> 2412.00
16:31:54:236 -> 2406.00
16:31:54:240 -> 2347.00
16:31:54:240 -> 2419.00
16:31:54:240 -> 2406.00
16:31:54:240 -> 2432.00
16:31:54:240 -> 2415.00
16:31:54:244 -> 2411.00
16:31:54:244 -> 2441.00
16:31:54:244 -> 2432.00
16:31:54:244 -> 2449.00
16:31:54:245 -> 2466.00
16:31:54:246 -> 2458.00
16:31:54:248 -> 2475.00
16:31:54:249 -> 2486.00
16:31:54:250 -> 2466.00
16:31:54:251 -> 2470.00
16:31:54:252 -> 2499.00
16:31:54:253 -> 2485.00
16:31:54:255 -> 2436.00
16:31:54:256 -> 2427.00
16:31:54:257 -> 2463.00
16:31:54:258 -> 2450.00
16:31:54:259 -> 2443.00
16:31:54:261 -> 2453.00
16:31:54:262 -> 2446.00
16:31:54:263 -> 2453.00
16:31:54:264 -> 2479.00
16:31:54:265 -> 2490.00
16:31:54:267 -> 2466.00
16:31:54:268 -> 2494.00
16:31:54:269 -> 2472.00
16:31:54:270 -> 2457.00
16:31:54:271 -> 2423.00
16:31:54:273 -> 2442.00
16:31:54:274 -> 2414.00
16:31:54:275 -> 2409.00
16:31:54:276 -> 2395.00
16:31:54:277 -> 2395.00
16:31:54:279 -> 2432.00
16:31:54:280 -> 2440.00
16:31:54:281 -> 2455.00
16:31:54:282 -> 2458.00
16:31:54:283 -> 2456.00
16:31:54:284 -> 2452.00
16:31:54:286 -> 2454.00
16:31:54:287 -> 2501.00
16:31:54:288 -> 2483.00
16:31:54:289 -> 2492.00
16:31:54:290 -> 2487.00
16:31:54:292 -> 2460.00
16:31:54:293 -> 2421.00
16:31:54:294 -> 2404.00
16:31:54:295 -> 2427.00
16:31:54:296 -> 2428.00
16:31:54:297 -> 2430.00
16:31:54:299 -> 2430.00
16:31:54:300 -> 2448.00
16:31:54:303 -> 2406.00
16:31:54:303 -> 2458.00
16:31:54:304 -> 2487.00
16:31:54:305 -> 2487.00
16:31:54:306 -> 2505.00
16:31:54:307 -> 2503.00
16:31:54:308 -> 2474.00
16:31:54:309 -> 2469.00
16:31:54:311 -> 2442.00
16:31:54:312 -> 2439.00
16:31:54:313 -> 2438.00
16:31:54:314 -> 2416.00
16:31:54:315 -> 2412.00
16:31:54:317 -> 2423.00
16:31:54:318 -> 2432.00
16:31:54:327 -> 2443.00
16:31:54:327 -> 2449.00
16:31:54:327 -> 2466.00
16:31:54:327 -> 2464.00
16:31:54:327 -> 2428.00
16:31:54:327 -> 2520.00
16:31:54:327 -> 2501.00
16:31:54:327 -> 2499.00
16:31:54:329 -> 2473.00
16:31:54:330 -> 2465.00
16:31:54:331 -> 2434.00
16:31:54:332 -> 2440.00
16:31:54:333 -> 2401.00
16:31:54:334 -> 2395.00
16:31:54:336 -> 2420.00
16:31:54:337 -> 2427.00
16:31:54:338 -> 2427.00
16:31:54:339 -> 2429.00
16:31:54:340 -> 2435.00
16:31:54:341 -> 2450.00
16:31:54:343 -> 2442.00
16:31:54:344 -> 2493.00
16:31:54:345 -> 2477.00
16:31:54:346 -> 2474.00
16:31:54:347 -> 2460.00
16:31:54:349 -> 2477.00
16:31:54:350 -> 2474.00
16:31:54:351 -> 2455.00
16:31:54:352 -> 2425.00
16:31:54:353 -> 2427.00
16:31:54:355 -> 2372.00
16:31:54:359 -> 2408.00
16:31:54:359 -> 2398.00
16:31:54:359 -> 2429.00
16:31:54:363 -> 2451.00
16:31:54:363 -> 2459.00
16:31:54:363 -> 2404.00
16:31:54:363 -> 2440.00
16:31:54:401 -> 2480.00
16:31:54:401 -> 2486.00
16:31:54:401 -> 2464.00
16:31:54:401 -> 2466.00
16:31:54:401 -> 2473.00
16:31:54:401 -> 2481.00
16:31:54:401 -> 2471.00
16:31:54:401 -> 2472.00
16:31:54:401 -> 2441.00
16:31:54:401 -> 2418.00
16:31:54:404 -> 2420.00
16:31:54:404 -> 2433.00
16:31:54:404 -> 2443.00
16:31:54:404 -> 2459.00
16:31:54:404 -> 2443.00
16:31:54:404 -> 2413.00
16:31:54:404 -> 2486.00
16:31:54:404 -> 2463.00
16:31:54:404 -> 2481.00
16:31:54:404 -> 2459.00
16:31:54:404 -> 2472.00
16:31:54:404 -> 2479.00
16:31:54:404 -> 2430.00
16:31:54:404 -> 2433.00
16:31:54:404 -> 2421.00
16:31:54:404 -> 2408.00
16:31:54:404 -> 2422.00
16:31:54:404 -> 2427.00
16:31:54:404 -> 2428.00
16:31:54:404 -> 2435.00
16:31:54:404 -> 2456.00
16:31:54:404 -> 2444.00
16:31:54:404 -> 2466.00
16:31:54:404 -> 2464.00
16:31:54:405 -> 2448.00
16:31:54:406 -> 2555.00
16:31:54:407 -> 2471.00
16:31:54:408 -> 2445.00
16:31:54:409 -> 2472.00
16:31:54:410 -> 2424.00
16:31:54:412 -> 2451.00
16:31:54:413 -> 2420.00
16:31:54:414 -> 2427.00
16:31:54:415 -> 2449.00
16:31:54:416 -> 2403.00
16:31:54:418 -> 2430.00
16:31:54:419 -> 2440.00
16:31:54:420 -> 2433.00
16:31:54:421 -> 2429.00
16:31:54:422 -> 2469.00
16:31:54:424 -> 2497.00
16:31:54:425 -> 2485.00
16:31:54:426 -> 2466.00
16:31:54:427 -> 2478.00
16:31:54:428 -> 2446.00
16:31:54:430 -> 2458.00
16:31:54:431 -> 2468.00
16:31:54:432 -> 2467.00
16:31:54:433 -> 2412.00
16:31:54:434 -> 2386.00
16:31:54:436 -> 2399.00
16:31:54:445 -> 2440.00
16:31:54:445 -> 2446.00
16:31:54:445 -> 2450.00
16:31:54:445 -> 2453.00
16:31:54:445 -> 2424.00
16:31:54:445 -> 2411.00
16:31:54:448 -> 2456.00
16:31:54:448 -> 2490.00
16:31:54:448 -> 2464.00
16:31:54:448 -> 2457.00
16:31:54:450 -> 2458.00
16:31:54:451 -> 2447.00
16:31:54:451 -> 2437.00
16:31:54:455 -> 2417.00
16:31:54:455 -> 2418.00
16:31:54:455 -> 2391.00
16:31:54:456 -> 2399.00
16:31:54:457 -> 2420.00
16:31:54:458 -> 2442.00
16:31:54:460 -> 2457.00
16:31:54:468 -> 2473.00
16:31:54:468 -> 2470.00
16:31:54:468 -> 2441.00
16:31:54:468 -> 2457.00
16:31:54:468 -> 2449.00
16:31:54:468 -> 2483.00
16:31:54:473 -> 2477.00
16:31:54:473 -> 2468.00
16:31:54:473 -> 2462.00
16:31:54:473 -> 2427.00
16:31:54:473 -> 2393.00
16:31:54:488 -> 2390.00
16:31:54:488 -> 2374.00
16:31:54:488 -> 2396.00
16:31:54:488 -> 2407.00
16:31:54:488 -> 2419.00
16:31:54:488 -> 2429.00
16:31:54:488 -> 2418.00
16:31:54:488 -> 2431.00
16:31:54:488 -> 2445.00
16:31:54:488 -> 2462.00
16:31:54:488 -> 2510.00
16:31:54:488 -> 2459.00
16:31:54:488 -> 2482.00
16:31:54:489 -> 2484.00
16:31:54:490 -> 2481.00
16:31:54:492 -> 2493.00
16:31:54:506 -> 2436.00
16:31:54:506 -> 2406.00
16:31:54:506 -> 2370.00
16:31:54:506 -> 2390.00
16:31:54:506 -> 2391.00
16:31:54:506 -> 2447.00
16:31:54:506 -> 2481.00
16:31:54:506 -> 2514.00
16:31:54:506 -> 2457.00
16:31:54:506 -> 2459.00
16:31:54:506 -> 2465.00
16:31:54:506 -> 2535.00
16:31:54:540 -> 2487.00
16:31:54:540 -> 2475.00
16:31:54:540 -> 2480.00
16:31:54:540 -> 2437.00
16:31:54:540 -> 2437.00
16:31:54:540 -> 2413.00
16:31:54:540 -> 2421.00
16:31:54:540 -> 2429.00
16:31:54:540 -> 2412.00
16:31:54:540 -> 2431.00
16:31:54:540 -> 2440.00
16:31:54:540 -> 2435.00
16:31:54:540 -> 2466.00
16:31:54:540 -> 2489.00
16:31:54:540 -> 2415.00
16:31:54:540 -> 2438.00
16:31:54:540 -> 2475.00
16:31:54:540 -> 2487.00
16:31:54:540 -> 2462.00
16:31:54:540 -> 2459.00
16:31:54:540 -> 2444.00
16:31:54:540 -> 2421.00
16:31:54:540 -> 2394.00
16:31:54:540 -> 2368.00
16:31:54:540 -> 2427.00
16:31:54:540 -> 2418.00
16:31:54:540 -> 2423.00
16:31:54:540 -> 2433.00
16:31:54:593 -> 2434.00
16:31:54:593 -> 2440.00
16:31:54:593 -> 2471.00
16:31:54:593 -> 2460.00
16:31:54:593 -> 2478.00
16:31:54:593 -> 2489.00
16:31:54:593 -> 2462.00
16:31:54:593 -> 2473.00
16:31:54:593 -> 2466.00
16:31:54:593 -> 2465.00
16:31:54:593 -> 2450.00
16:31:54:593 -> 2416.00
16:31:54:593 -> 2358.00
16:31:54:593 -> 2467.00
16:31:54:593 -> 2441.00
16:31:54:593 -> 2443.00
16:31:54:593 -> 2452.00
16:31:54:593 -> 2446.00
16:31:54:593 -> 2431.00
16:31:54:593 -> 2435.00
16:31:54:593 -> 2456.00
16:31:54:593 -> 2541.00
16:31:54:593 -> 2461.00
16:31:54:593 -> 2473.00
16:31:54:593 -> 2461.00
16:31:54:593 -> 2450.00
16:31:54:593 -> 2455.00
16:31:54:593 -> 2427.00
16:31:54:593 -> 2404.00
16:31:54:593 -> 2356.00
16:31:54:593 -> 2350.00
16:31:54:608 -> 2390.00
16:31:54:608 -> 2446.00
16:31:54:608 -> 2449.00
16:31:54:608 -> 2415.00
16:31:54:608 -> 2451.00
16:31:54:608 -> 2471.00
16:31:54:608 -> 2468.00
16:31:54:608 -> 2537.00
16:31:54:608 -> 2459.00
16:31:54:608 -> 2480.00
16:31:54:608 -> 2479.00
16:31:54:608 -> 2447.00
16:31:54:608 -> 2460.00
16:31:54:608 -> 2433.00
16:31:54:608 -> 2391.00
16:31:54:608 -> 2438.00
16:31:54:608 -> 2412.00
16:31:54:608 -> 2408.00
16:31:54:608 -> 2408.00
16:31:54:608 -> 2390.00
16:31:54:608 -> 2453.00
16:31:54:608 -> 2425.00
16:31:54:608 -> 2461.00
16:31:54:608 -> 2439.00
16:31:54:608 -> 2501.00
16:31:54:608 -> 2462.00
16:31:54:608 -> 2472.00
16:31:54:609 -> 2470.00
16:31:54:620 -> 2436.00
16:31:54:620 -> 2455.00
16:31:54:620 -> 2421.00
16:31:54:620 -> 2419.00
16:31:54:620 -> 2425.00
16:31:54:620 -> 2417.00
16:31:54:620 -> 2456.00
16:31:54:620 -> 2452.00
16:31:54:620 -> 2447.00
16:31:54:632 -> 2412.00
16:31:54:632 -> 2477.00
16:31:54:632 -> 2475.00
16:31:54:632 -> 2468.00
16:31:54:632 -> 2454.00
16:31:54:632 -> 2476.00
16:31:54:632 -> 2476.00
16:31:54:632 -> 2476.00
16:31:54:632 -> 2462.00
16:31:54:635 -> 2459.00
16:31:54:635 -> 2458.00
16:31:54:635 -> 2420.00
16:31:54:635 -> 2400.00
16:31:54:637 -> 2421.00
16:31:54:638 -> 2433.00
16:31:54:639 -> 2457.00
16:31:54:641 -> 2455.00
16:31:54:643 -> 2470.00
16:31:54:643 -> 2446.00
16:31:54:644 -> 2441.00
16:31:54:645 -> 2468.00
16:31:54:646 -> 2455.00
16:31:54:647 -> 2456.00
16:31:54:648 -> 2458.00
16:31:54:675 -> 2428.00
16:31:54:675 -> 2427.00
16:31:54:675 -> 2423.00
16:31:54:675 -> 2418.00
16:31:54:677 -> 2376.00
16:31:54:677 -> 2418.00
16:31:54:678 -> 2431.00
16:31:54:650 -> 2444.00
16:31:54:669 -> 2407.00
16:31:54:669 -> 2400.00
16:31:54:669 -> 2400.00
16:31:54:669 -> 2409.00
16:31:54:669 -> 2391.00
16:31:54:669 -> 2493.00
16:31:54:669 -> 2443.00
16:31:54:669 -> 2435.00
16:31:54:669 -> 2435.00
16:31:54:669 -> 2429.00
16:31:54:669 -> 2437.00
16:31:54:669 -> 2482.00
16:31:54:669 -> 2511.00
16:31:54:669 -> 2494.00
16:31:54:669 -> 2456.00
16:31:54:669 -> 2467.00
16:31:54:683 -> 2438.00
16:31:54:683 -> 2412.00
16:31:54:683 -> 2441.00
16:31:54:683 -> 2440.00
16:31:54:684 -> 2462.00
16:31:54:685 -> 2434.00
16:31:54:687 -> 2463.00
16:31:54:691 -> 2473.00
16:31:54:691 -> 2459.00
16:31:54:691 -> 2463.00
16:31:54:670 -> 2462.00
16:31:54:696 -> 2463.00
16:31:54:696 -> 2441.00
16:31:54:696 -> 2384.00
16:31:54:696 -> 2377.00
16:31:54:702 -> 2412.00
16:31:54:702 -> 2431.00
16:31:54:702 -> 2438.00
16:31:54:702 -> 2459.00
16:31:54:702 -> 2428.00
16:31:54:702 -> 2434.00
16:31:54:707 -> 2425.00
16:31:54:707 -> 2455.00
16:31:54:707 -> 2483.00
16:31:54:707 -> 2475.00
16:31:54:711 -> 2465.00
16:31:54:711 -> 2444.00
16:31:54:711 -> 2438.00
16:31:54:712 -> 2382.00
16:31:54:721 -> 2374.00
