16:29:34:331 -> 1961.00
16:29:34:333 -> 1918.00
16:29:34:334 -> 1936.00
16:29:34:335 -> 2114.00
16:29:34:336 -> 2064.00
16:29:34:337 -> 2106.00
16:29:34:338 -> 2055.00
16:29:34:340 -> 2017.00
16:29:34:341 -> 1978.00
16:29:34:342 -> 2385.00
16:29:34:344 -> 2279.00
16:29:34:346 -> 2137.00
16:29:34:346 -> 2101.00
16:29:34:349 -> 2177.00
16:29:34:349 -> 2210.00
16:29:34:364 -> 2142.00
16:29:34:364 -> 2174.00
16:29:34:364 -> 2217.00
16:29:34:364 -> 2198.00
16:29:34:364 -> 2160.00
16:29:34:364 -> 2126.00
16:29:34:364 -> 2138.00
16:29:34:364 -> 2110.00
16:29:34:364 -> 2074.00
16:29:34:364 -> 2036.00
16:29:34:366 -> 2132.00
16:29:34:366 -> 2214.00
16:29:34:366 -> 2175.00
16:29:34:366 -> 2162.00
16:29:34:366 -> 2069.00
16:29:34:367 -> 2037.00
16:29:34:368 -> 2065.00
16:29:34:370 -> 2113.00
16:29:34:371 -> 2190.00
16:29:34:372 -> 2205.00
16:29:34:373 -> 2110.00
16:29:34:374 -> 2051.00
16:29:34:375 -> 2020.00
16:29:34:376 -> 2093.00
16:29:34:378 -> 2021.00
16:29:34:381 -> 2102.00
16:29:34:381 -> 2183.00
16:29:34:381 -> 2086.00
16:29:34:382 -> 2141.00
16:29:34:393 -> 2059.00
16:29:34:393 -> 2050.00
16:29:34:393 -> 2260.00
16:29:34:393 -> 2231.00
16:29:34:393 -> 2122.00
16:29:34:393 -> 2216.00
16:29:34:393 -> 2169.00
16:29:34:393 -> 2043.00
16:29:34:395 -> 2049.00
16:29:34:395 -> 2103.00
16:29:34:396 -> 2063.00
16:29:34:398 -> 2068.00
16:29:34:398 -> 2103.00
16:29:34:399 -> 2189.00
16:29:34:400 -> 2185.00
16:29:34:401 -> 2173.00
16:29:34:403 -> 2196.00
16:29:34:404 -> 2176.00
16:29:34:405 -> 2090.00
16:29:34:406 -> 2045.00
16:29:34:407 -> 2024.00
16:29:34:409 -> 2009.00
16:29:34:410 -> 2024.00
16:29:34:411 -> 2036.00
16:29:34:412 -> 1976.00
16:29:34:413 -> 2011.00
16:29:34:415 -> 2101.00
16:29:34:416 -> 2057.00
16:29:34:417 -> 2057.00
16:29:34:418 -> 2003.00
16:29:34:419 -> 1980.00
16:29:34:420 -> 2203.00
16:29:34:422 -> 2164.00
16:29:34:423 -> 2176.00
16:29:34:424 -> 2221.00
16:29:34:430 -> 2160.00
16:29:34:430 -> 2104.00
16:29:34:430 -> 2114.00
16:29:34:430 -> 2127.00
16:29:34:430 -> 2091.00
16:29:34:431 -> 2092.00
16:29:34:433 -> 2080.00
16:29:34:434 -> 2017.00
16:29:34:435 -> 2141.00
16:29:34:436 -> 2089.00
16:29:34:438 -> 2056.00
16:29:34:438 -> 2100.00
16:29:34:439 -> 2289.00
16:29:34:441 -> 2236.00
16:29:34:442 -> 2248.00
16:29:34:443 -> 2171.00
16:29:34:444 -> 2050.00
16:29:34:445 -> 2036.00
16:29:34:447 -> 2020.00
16:29:34:448 -> 1992.00
16:29:34:449 -> 2126.00
16:29:34:450 -> 2122.00
16:29:34:451 -> 2196.00
16:29:34:453 -> 2247.00
16:29:34:454 -> 2311.00
16:29:34:455 -> 2275.00
16:29:34:456 -> 2286.00
16:29:34:457 -> 2062.00
16:29:34:469 -> 2142.00
16:29:34:469 -> 2159.00
16:29:34:469 -> 2108.00
16:29:34:469 -> 2139.00
16:29:34:469 -> 2176.00
16:29:34:469 -> 2193.00
16:29:34:469 -> 2142.00
16:29:34:469 -> 2099.00
16:29:34:469 -> 2069.00
16:29:34:469 -> 2005.00
16:29:34:471 -> 2031.00
16:29:34:472 -> 2065.00
16:29:34:473 -> 2027.00
16:29:34:474 -> 2094.00
16:29:34:475 -> 2184.00
16:29:34:497 -> 2096.00
16:29:34:497 -> 2043.00
16:29:34:497 -> 2024.00
16:29:34:497 -> 1985.00
16:29:34:507 -> 2000.00
16:29:34:507 -> 1944.00
16:29:34:507 -> 2116.00
16:29:34:507 -> 2212.00
16:29:34:507 -> 2209.00
16:29:34:507 -> 2243.00
16:29:34:507 -> 2191.00
16:29:34:507 -> 2195.00
16:29:34:507 -> 2178.00
16:29:34:507 -> 2118.00
16:29:34:507 -> 2075.00
16:29:34:507 -> 2090.00
16:29:34:507 -> 2037.00
16:29:34:507 -> 1943.00
16:29:34:507 -> 1921.00
16:29:34:507 -> 2036.00
16:29:34:507 -> 2171.00
16:29:34:507 -> 2078.00
16:29:34:507 -> 2050.00
16:29:34:507 -> 2091.00
16:29:34:507 -> 2014.00
16:29:34:507 -> 1999.00
16:29:34:509 -> 2102.00
16:29:34:509 -> 2137.00
16:29:34:524 -> 2031.00
16:29:34:524 -> 2106.00
16:29:34:524 -> 2279.00
16:29:34:524 -> 2321.00
16:29:34:524 -> 2264.00
16:29:34:524 -> 2204.00
16:29:34:524 -> 2168.00
16:29:34:524 -> 2245.00
16:29:34:524 -> 2217.00
16:29:34:524 -> 2252.00
16:29:34:524 -> 2249.00
16:29:34:524 -> 2153.00
16:29:34:531 -> 1983.00
16:29:34:531 -> 2135.00
16:29:34:531 -> 2133.00
16:29:34:532 -> 1933.00
16:29:34:532 -> 2054.00
16:29:34:532 -> 2018.00
16:29:34:532 -> 2055.00
16:29:34:533 -> 2079.00
16:29:34:534 -> 2154.00
16:29:34:535 -> 2092.00
16:29:34:536 -> 2091.00
16:29:34:537 -> 2084.00
16:29:34:538 -> 2202.00
16:29:34:539 -> 2205.00
16:29:34:541 -> 2145.00
16:29:34:542 -> 2212.00
16:29:34:543 -> 2186.00
16:29:34:544 -> 2149.00
16:29:34:545 -> 2089.00
16:29:34:547 -> 2082.00
16:29:34:548 -> 2166.00
16:29:34:549 -> 2157.00
16:29:34:550 -> 2024.00
16:29:34:551 -> 2053.00
16:29:34:553 -> 2059.00
16:29:34:554 -> 2016.00
16:29:34:555 -> 2139.00
16:29:34:556 -> 2309.00
16:29:34:557 -> 2203.00
16:29:34:558 -> 2230.00
16:29:34:560 -> 2144.00
16:29:34:561 -> 2130.00
16:29:34:562 -> 2082.00
16:29:34:563 -> 2033.00
16:29:34:564 -> 2112.00
16:29:34:566 -> 2075.00
16:29:34:568 -> 2116.00
16:29:34:568 -> 2127.00
16:29:34:569 -> 2122.00
16:29:34:570 -> 2051.00
16:29:34:572 -> 2098.00
16:29:34:573 -> 2117.00
16:29:34:574 -> 2126.00
16:29:34:575 -> 2142.00
16:29:34:576 -> 2071.00
16:29:34:577 -> 1975.00
16:29:34:579 -> 1951.00
16:29:34:580 -> 2026.00
16:29:34:581 -> 2074.00
16:29:34:582 -> 2140.00
16:29:34:583 -> 2192.00
16:29:34:585 -> 2177.00
16:29:34:586 -> 2181.00
16:29:34:587 -> 2248.00
16:29:34:588 -> 2221.00
16:29:34:589 -> 2181.00
16:29:34:591 -> 2152.00
16:29:34:592 -> 2077.00
16:29:34:593 -> 2108.00
16:29:34:594 -> 2176.00
16:29:34:595 -> 2048.00
16:29:34:597 -> 2032.00
16:29:34:598 -> 2185.00
16:29:34:599 -> 2077.00
16:29:34:603 -> 2116.00
16:29:34:603 -> 2100.00
16:29:34:603 -> 2128.00
16:29:34:604 -> 2190.00
16:29:34:605 -> 2185.00
16:29:34:607 -> 2135.00
16:29:34:609 -> 2135.00
16:29:34:609 -> 2130.00
16:29:34:610 -> 2136.00
16:29:34:611 -> 2038.00
16:29:34:613 -> 2100.00
16:29:34:620 -> 2163.00
16:29:34:620 -> 2111.00
16:29:34:620 -> 2089.00
16:29:34:620 -> 2145.00
16:29:34:620 -> 2280.00
16:29:34:620 -> 2214.00
16:29:34:621 -> 2168.00
16:29:34:622 -> 2144.00
16:29:34:623 -> 2144.00
16:29:34:629 -> 2077.00
16:29:34:629 -> 2095.00
16:29:34:629 -> 1971.00
16:29:34:629 -> 1989.00
16:29:34:629 -> 2075.00
16:29:34:630 -> 2117.00
16:29:34:631 -> 2116.00
16:29:34:632 -> 2117.00
16:29:34:633 -> 2056.00
16:29:34:635 -> 2100.00
16:29:34:636 -> 2072.00
16:29:34:637 -> 2211.00
16:29:34:638 -> 2239.00
16:29:34:639 -> 2301.00
16:29:34:641 -> 2226.00
16:29:34:643 -> 2158.00
16:29:34:643 -> 2131.00
16:29:34:645 -> 2095.00
16:29:34:645 -> 2012.00
16:29:34:651 -> 2028.00
16:29:34:651 -> 1980.00
16:29:34:651 -> 2133.00
16:29:34:651 -> 2147.00
16:29:34:656 -> 2120.00
16:29:34:656 -> 2219.00
16:29:34:656 -> 2201.00
16:29:34:656 -> 2199.00
16:29:34:661 -> 2214.00
16:29:34:661 -> 2219.00
16:29:34:661 -> 2227.00
16:29:34:661 -> 2186.00
16:29:34:662 -> 2080.00
16:29:34:664 -> 2004.00
16:29:34:664 -> 2042.00
16:29:34:665 -> 2127.00
16:29:34:666 -> 2106.00
16:29:34:667 -> 2164.00
16:29:34:668 -> 2057.00
16:29:34:669 -> 2073.00
16:29:34:670 -> 2083.00
16:29:34:671 -> 2027.00
16:29:34:673 -> 2168.00
16:29:34:674 -> 2207.00
16:29:34:675 -> 2270.00
16:29:34:676 -> 2192.00
16:29:34:677 -> 2156.00
16:29:34:679 -> 2112.00
16:29:34:680 -> 2204.00
16:29:34:681 -> 2162.00
16:29:34:682 -> 2209.00
16:29:34:683 -> 2224.00
16:29:34:685 -> 2269.00
16:29:34:686 -> 2031.00
16:29:34:687 -> 2051.00
16:29:34:688 -> 2092.00
16:29:34:689 -> 2089.00
16:29:34:690 -> 2095.00
16:29:34:693 -> 2116.00
16:29:34:693 -> 2071.00
16:29:34:698 -> 2106.00
16:29:34:698 -> 2132.00
16:29:34:698 -> 2118.00
16:29:34:746 -> 2188.00
16:29:34:746 -> 2249.00
16:29:34:746 -> 2147.00
16:29:34:746 -> 2183.00
16:29:34:746 -> 2264.00
16:29:34:746 -> 2242.00
16:29:34:746 -> 2189.00
16:29:34:746 -> 2153.00
16:29:34:746 -> 2060.00
16:29:34:746 -> 2104.00
16:29:34:746 -> 2054.00
16:29:34:746 -> 2107.00
16:29:34:746 -> 2249.00
16:29:34:746 -> 2183.00
16:29:34:746 -> 2175.00
16:29:34:746 -> 2140.00
16:29:34:752 -> 2197.00
16:29:34:752 -> 2142.00
16:29:34:752 -> 2121.00
16:29:34:752 -> 2143.00
16:29:34:752 -> 2127.00
16:29:34:752 -> 2137.00
16:29:34:752 -> 2208.00
16:29:34:752 -> 2203.00
16:29:34:752 -> 2169.00
16:29:34:752 -> 2093.00
16:29:34:752 -> 2090.00
16:29:34:752 -> 2070.00
16:29:34:752 -> 2157.00
16:29:34:752 -> 2129.00
16:29:34:752 -> 2129.00
16:29:34:752 -> 2149.00
16:29:34:752 -> 2104.00
16:29:34:752 -> 2171.00
16:29:34:752 -> 2132.00
16:29:34:752 -> 2161.00
16:29:34:752 -> 2159.00
16:29:34:752 -> 2181.00
16:29:34:752 -> 2168.00
16:29:34:752 -> 2117.00
16:29:34:752 -> 2081.00
16:29:34:752 -> 2122.00
16:29:34:752 -> 2120.00
16:29:34:759 -> 2145.00
16:29:34:759 -> 2156.00
16:29:34:759 -> 2157.00
16:29:34:759 -> 2132.00
16:29:34:759 -> 2100.00
16:29:34:759 -> 2153.00
16:29:34:759 -> 2169.00
16:29:34:759 -> 2163.00
16:29:34:761 -> 2185.00
16:29:34:761 -> 2210.00
16:29:34:762 -> 2161.00
16:29:34:763 -> 2148.00
16:29:34:763 -> 2124.00
16:29:34:774 -> 2065.00
16:29:34:797 -> 2063.00
16:29:34:797 -> 2062.00
16:29:34:797 -> 1978.00
16:29:34:797 -> 2069.00
16:29:34:797 -> 2171.00
16:29:34:797 -> 2217.00
16:29:34:797 -> 2217.00
16:29:34:797 -> 2222.00
16:29:34:797 -> 2167.00
16:29:34:797 -> 2101.00
16:29:34:797 -> 2105.00
16:29:34:797 -> 2018.00
16:29:34:797 -> 2028.00
16:29:34:797 -> 2145.00
16:29:34:797 -> 2174.00
16:29:34:797 -> 2178.00
16:29:34:797 -> 2246.00
16:29:34:797 -> 2240.00
16:29:34:797 -> 2165.00
16:29:34:797 -> 2104.00
16:29:34:797 -> 2079.00
16:29:34:797 -> 2142.00
16:29:34:797 -> 2183.00
16:29:34:797 -> 2154.00
16:29:34:797 -> 2072.00
16:29:34:797 -> 2158.00
16:29:34:797 -> 2165.00
16:29:34:884 -> 2152.00
16:29:34:884 -> 2105.00
16:29:34:884 -> 2053.00
16:29:34:884 -> 2138.00
16:29:34:884 -> 2266.00
16:29:34:884 -> 2237.00
16:29:34:884 -> 2235.00
16:29:34:884 -> 2123.00
16:29:34:884 -> 2089.00
16:29:34:884 -> 2210.00
16:29:34:884 -> 2161.00
16:29:34:884 -> 2177.00
16:29:34:884 -> 2182.00
16:29:34:884 -> 2187.00
16:29:34:884 -> 2213.00
16:29:34:884 -> 2153.00
16:29:34:884 -> 2173.00
16:29:34:884 -> 2156.00
16:29:34:884 -> 2174.00
16:29:34:884 -> 2103.00
16:29:34:884 -> 2193.00
16:29:34:884 -> 2205.00
16:29:34:884 -> 2189.00
16:29:34:884 -> 2136.00
16:29:34:884 -> 2157.00
16:29:34:884 -> 2048.00
16:29:34:884 -> 1982.00
16:29:34:884 -> 2130.00
16:29:34:884 -> 2155.00
16:29:34:884 -> 2168.00
16:29:34:884 -> 2177.00
16:29:34:884 -> 2190.00
16:29:34:884 -> 2150.00
16:29:34:901 -> 2157.00
16:29:34:901 -> 2145.00
16:29:34:901 -> 2145.00
16:29:34:901 -> 2161.00
16:29:34:901 -> 2145.00
16:29:34:901 -> 2101.00
16:29:34:901 -> 2134.00
16:29:34:901 -> 2106.00
16:29:34:901 -> 2169.00
16:29:34:901 -> 2148.00
16:29:34:901 -> 2123.00
16:29:34:901 -> 2100.00
16:29:34:901 -> 2220.00
16:29:34:901 -> 2217.00
16:29:34:901 -> 2077.00
16:29:34:901 -> 2016.00
16:29:34:901 -> 2088.00
16:29:34:901 -> 2078.00
16:29:34:901 -> 2039.00
16:29:34:901 -> 2039.00
16:29:34:901 -> 1969.00
16:29:34:901 -> 2036.00
16:29:34:901 -> 2202.00
16:29:34:901 -> 2263.00
16:29:34:901 -> 2231.00
16:29:34:901 -> 2207.00
16:29:34:901 -> 2199.00
16:29:34:901 -> 2167.00
16:29:34:901 -> 2157.00
16:29:34:901 -> 2144.00
16:29:34:901 -> 2142.00
16:29:34:901 -> 2195.00
16:29:34:901 -> 2211.00
16:29:34:901 -> 2251.00
16:29:34:901 -> 2214.00
16:29:34:901 -> 2191.00
16:29:34:901 -> 2178.00
16:29:34:901 -> 2209.00
16:29:34:901 -> 2171.00
16:29:34:901 -> 2182.00
16:29:34:901 -> 2190.00
16:29:34:901 -> 2138.00
16:29:34:901 -> 2140.00
16:29:34:901 -> 2108.00
16:29:34:901 -> 2055.00
16:29:34:901 -> 2059.00
16:29:34:901 -> 2073.00
16:29:34:901 -> 2065.00
16:29:34:901 -> 2090.00
16:29:34:901 -> 2074.00
16:29:34:901 -> 2206.00
16:29:34:901 -> 2223.00
16:29:34:901 -> 2217.00
16:29:34:901 -> 2246.00
16:29:34:901 -> 2243.00
16:29:34:910 -> 2219.00
16:29:34:910 -> 2222.00
16:29:34:910 -> 2172.00
16:29:34:910 -> 2160.00
16:29:34:910 -> 2171.00
16:29:34:910 -> 2119.00
16:29:34:910 -> 2186.00
16:29:34:926 -> 2126.00
16:29:34:926 -> 2166.00
16:29:34:926 -> 2182.00
16:29:34:926 -> 2166.00
16:29:34:926 -> 2202.00
16:29:34:926 -> 2113.00
16:29:34:926 -> 2106.00
16:29:34:926 -> 2145.00
16:29:34:926 -> 2150.00
16:29:34:926 -> 2109.00
16:29:34:926 -> 2151.00
16:29:34:926 -> 2127.00
16:29:34:926 -> 2117.00
16:29:34:927 -> 2121.00
16:29:34:965 -> 2031.00
16:29:34:965 -> 1974.00
16:29:34:965 -> 2055.00
16:29:34:965 -> 2115.00
16:29:34:965 -> 2147.00
16:29:34:965 -> 2215.00
16:29:34:965 -> 2219.00
16:29:34:965 -> 2191.00
16:29:34:965 -> 2195.00
16:29:34:965 -> 2181.00
16:29:34:965 -> 2204.00
16:29:34:965 -> 2146.00
16:29:34:965 -> 2108.00
16:29:34:965 -> 2114.00
16:29:34:965 -> 2138.00
16:29:34:965 -> 2234.00
16:29:34:965 -> 2182.00
16:29:34:965 -> 2100.00
16:29:34:965 -> 1967.00
16:29:34:965 -> 2089.00
16:29:34:965 -> 2244.00
16:29:34:965 -> 2199.00
16:29:34:965 -> 2160.00
16:29:34:965 -> 2114.00
16:29:34:965 -> 2177.00
16:29:34:965 -> 2183.00
16:29:34:965 -> 2189.00
16:29:34:965 -> 2176.00
16:29:34:965 -> 2116.00
16:29:34:965 -> 2100.00
16:29:34:965 -> 2199.00
16:29:34:965 -> 2225.00
16:29:34:965 -> 2226.00
16:29:34:968 -> 2242.00
16:29:34:968 -> 2218.00
16:29:34:971 -> 2127.00
16:29:34:971 -> 2097.00
16:29:34:976 -> 2138.00
16:29:34:976 -> 2140.00
16:29:34:976 -> 2128.00
16:29:34:976 -> 2108.00
16:29:35:039 -> 2095.00
16:29:35:039 -> 2149.00
16:29:35:039 -> 2207.00
16:29:35:039 -> 2210.00
16:29:35:039 -> 2152.00
16:29:35:039 -> 2106.00
16:29:35:039 -> 2117.00
16:29:35:039 -> 2163.00
16:29:35:039 -> 2111.00
16:29:35:039 -> 2151.00
16:29:35:039 -> 2165.00
16:29:35:039 -> 2176.00
16:29:35:039 -> 2144.00
16:29:35:039 -> 2139.00
16:29:35:039 -> 2173.00
16:29:35:039 -> 2198.00
16:29:35:039 -> 2149.00
16:29:35:039 -> 2084.00
16:29:35:039 -> 2071.00
16:29:35:039 -> 2176.00
16:29:35:039 -> 2128.00
16:29:35:039 -> 2176.00
16:29:35:039 -> 2200.00
16:29:35:039 -> 2243.00
16:29:35:039 -> 2211.00
16:29:35:039 -> 2198.00
16:29:35:039 -> 2166.00
16:29:35:039 -> 2115.00
16:29:35:039 -> 2083.00
16:29:35:039 -> 2125.00
16:29:35:053 -> 2189.00
16:29:35:053 -> 2203.00
16:29:35:053 -> 2151.00
16:29:35:053 -> 2133.00
16:29:35:053 -> 2120.00
16:29:35:053 -> 2114.00
16:29:35:053 -> 2123.00
16:29:35:053 -> 2182.00
16:29:35:053 -> 2160.00
16:29:35:053 -> 2036.00
16:29:35:053 -> 2092.00
16:29:35:053 -> 2182.00
16:29:35:053 -> 2135.00
16:29:35:053 -> 2211.00
16:29:35:053 -> 2228.00
16:29:35:053 -> 2240.00
16:29:35:053 -> 2134.00
16:29:35:053 -> 2145.00
16:29:35:053 -> 2152.00
16:29:35:053 -> 2143.00
16:29:35:053 -> 2192.00
16:29:35:053 -> 2167.00
16:29:35:053 -> 2195.00
16:29:35:053 -> 2234.00
16:29:35:053 -> 2188.00
16:29:35:053 -> 2154.00
16:29:35:053 -> 2152.00
16:29:35:053 -> 2090.00
16:29:35:053 -> 2084.00
16:29:35:053 -> 1984.00
16:29:35:053 -> 1969.00
16:29:35:053 -> 2162.00
16:29:35:053 -> 2207.00
16:29:35:053 -> 2270.00
16:29:35:053 -> 2197.00
16:29:35:067 -> 2399.00
16:29:35:067 -> 2284.00
16:29:35:067 -> 2265.00
16:29:35:067 -> 2100.00
16:29:35:067 -> 2136.00
16:29:35:067 -> 2207.00
16:29:35:067 -> 2261.00
16:29:35:067 -> 2203.00
16:29:35:067 -> 2202.00
16:29:35:067 -> 2192.00
16:29:35:067 -> 2163.00
16:29:35:067 -> 2168.00
16:29:35:088 -> 2165.00
16:29:35:088 -> 2094.00
16:29:35:088 -> 2045.00
16:29:35:088 -> 2103.00
16:29:35:088 -> 2151.00
16:29:35:088 -> 2168.00
16:29:35:088 -> 2160.00
16:29:35:088 -> 2240.00
16:29:35:088 -> 2189.00
16:29:35:088 -> 2111.00
16:29:35:088 -> 2096.00
16:29:35:088 -> 2179.00
16:29:35:088 -> 2174.00
16:29:35:088 -> 2181.00
16:29:35:088 -> 2180.00
16:29:35:088 -> 2150.00
16:29:35:088 -> 2182.00
16:29:35:088 -> 2098.00
16:29:35:103 -> 2124.00
16:29:35:103 -> 2139.00
16:29:35:103 -> 2145.00
16:29:35:103 -> 2058.00
16:29:35:103 -> 2060.00
16:29:35:103 -> 2185.00
16:29:35:103 -> 2140.00
16:29:35:103 -> 2140.00
16:29:35:103 -> 2175.00
16:29:35:103 -> 2228.00
16:29:35:103 -> 2201.00
16:29:35:103 -> 2232.00
16:29:35:114 -> 2176.00
16:29:35:114 -> 2205.00
16:29:35:114 -> 2169.00
16:29:35:114 -> 2086.00
16:29:35:114 -> 2209.00
16:29:35:114 -> 2122.00
16:29:35:114 -> 2139.00
16:29:35:114 -> 2140.00
16:29:35:114 -> 2132.00
16:29:35:122 -> 2169.00
16:29:35:122 -> 2200.00
16:29:35:122 -> 2157.00
16:29:35:122 -> 2179.00
16:29:35:122 -> 2160.00
16:29:35:122 -> 2221.00
16:29:35:122 -> 2204.00
16:29:35:122 -> 2157.00
16:29:35:133 -> 2143.00
16:29:35:133 -> 2146.00
16:29:35:133 -> 2174.00
16:29:35:133 -> 2214.00
16:29:35:133 -> 2224.00
16:29:35:133 -> 2224.00
16:29:35:133 -> 2094.00
16:29:35:133 -> 2084.00
16:29:35:146 -> 2115.00
16:29:35:146 -> 2121.00
16:29:35:146 -> 2177.00
16:29:35:146 -> 2169.00
16:29:35:146 -> 2227.00
16:29:35:146 -> 2185.00
16:29:35:146 -> 2197.00
16:29:35:146 -> 2278.00
16:29:35:146 -> 2226.00
16:29:35:146 -> 2124.00
16:29:35:146 -> 2191.00
16:29:35:148 -> 2198.00
16:29:35:148 -> 2120.00
16:29:35:154 -> 2146.00
16:29:35:154 -> 2129.00
16:29:35:154 -> 2190.00
16:29:35:154 -> 2096.00
16:29:35:154 -> 2173.00
16:29:35:155 -> 2148.00
16:29:35:158 -> 2175.00
16:29:35:158 -> 2090.00
16:29:35:159 -> 2080.00
16:29:35:162 -> 2106.00
16:29:35:162 -> 2118.00
16:29:35:171 -> 2195.00
16:29:35:171 -> 2245.00
16:29:35:171 -> 2279.00
16:29:35:171 -> 2183.00
16:29:35:171 -> 2151.00
16:29:35:171 -> 2144.00
16:29:35:171 -> 2108.00
16:29:35:171 -> 2095.00
16:29:35:172 -> 2043.00
16:29:35:173 -> 2128.00
16:29:35:174 -> 2189.00
16:29:35:175 -> 2167.00
16:29:35:176 -> 2146.00
16:29:35:177 -> 2226.00
16:29:35:179 -> 2222.00
16:29:35:179 -> 2183.00
16:29:35:181 -> 2179.00
16:29:35:182 -> 2140.00
16:29:35:183 -> 2162.00
16:29:35:184 -> 2209.00
16:29:35:185 -> 2202.00
16:29:35:188 -> 2178.00
16:29:35:191 -> 2166.00
16:29:35:191 -> 2205.00
16:29:35:191 -> 2174.00
16:29:35:192 -> 2117.00
16:29:35:193 -> 2148.00
16:29:35:194 -> 2139.00
16:29:35:195 -> 2181.00
16:29:35:197 -> 2131.00
16:29:35:197 -> 2151.00
16:29:35:199 -> 2198.00
16:29:35:200 -> 2174.00
16:29:35:201 -> 2172.00
16:29:35:202 -> 2247.00
16:29:35:203 -> 2200.00
16:29:35:204 -> 2120.00
16:29:35:206 -> 2120.00
16:29:35:207 -> 2154.00
16:29:35:208 -> 2132.00
16:29:35:209 -> 2135.00
16:29:35:211 -> 2175.00
16:29:35:212 -> 2254.00
16:29:35:213 -> 2242.00
16:29:35:214 -> 2143.00
16:29:35:215 -> 2110.00
16:29:35:216 -> 2095.00
16:29:35:218 -> 2079.00
16:29:35:219 -> 2155.00
16:29:35:220 -> 2170.00
16:29:35:221 -> 2222.00
16:29:35:222 -> 2260.00
16:29:35:224 -> 2174.00
16:29:35:225 -> 2134.00
16:29:35:226 -> 2188.00
16:29:35:227 -> 2310.00
16:29:35:228 -> 2142.00
16:29:35:229 -> 2053.00
16:29:35:231 -> 2229.00
16:29:35:232 -> 2171.00
16:29:35:233 -> 2121.00
16:29:35:234 -> 2104.00
16:29:35:235 -> 2079.00
16:29:35:237 -> 2081.00
16:29:35:238 -> 2060.00
16:29:35:239 -> 1995.00
16:29:35:240 -> 2073.00
16:29:35:241 -> 2158.00
16:29:35:243 -> 2235.00
16:29:35:244 -> 2260.00
16:29:35:245 -> 2273.00
16:29:35:246 -> 2245.00
16:29:35:247 -> 2246.00
16:29:35:249 -> 2227.00
16:29:35:250 -> 2193.00
16:29:35:253 -> 2103.00
16:29:35:253 -> 2182.00
16:29:35:254 -> 2234.00
16:29:35:255 -> 2192.00
16:29:35:256 -> 2173.00
16:29:35:257 -> 2199.00
16:29:35:260 -> 2150.00
16:29:35:262 -> 2109.00
16:29:35:262 -> 2139.00
16:29:35:262 -> 2130.00
16:29:35:263 -> 2125.00
16:29:35:264 -> 2155.00
16:29:35:265 -> 2195.00
16:29:35:266 -> 2189.00
16:29:35:268 -> 2201.00
16:29:35:269 -> 2238.00
16:29:35:270 -> 2334.00
16:29:35:271 -> 2234.00
16:29:35:272 -> 2205.00
16:29:35:274 -> 2094.00
16:29:35:277 -> 2099.00
16:29:35:277 -> 2177.00
16:29:35:301 -> 2189.00
16:29:35:301 -> 2169.00
16:29:35:301 -> 2119.00
16:29:35:301 -> 2158.00
16:29:35:301 -> 2257.00
16:29:35:301 -> 2247.00
16:29:35:301 -> 2174.00
16:29:35:301 -> 2162.00
16:29:35:301 -> 2168.00
16:29:35:301 -> 2134.00
16:29:35:301 -> 2094.00
16:29:35:301 -> 2064.00
16:29:35:301 -> 2094.00
16:29:35:301 -> 2162.00
16:29:35:301 -> 2180.00
16:29:35:301 -> 2222.00
16:29:35:301 -> 2201.00
16:29:35:301 -> 2193.00
16:29:35:301 -> 2203.00
16:29:35:301 -> 2254.00
16:29:35:310 -> 2240.00
16:29:35:310 -> 2209.00
16:29:35:310 -> 2177.00
16:29:35:310 -> 2167.00
16:29:35:310 -> 2210.00
16:29:35:310 -> 2262.00
16:29:35:310 -> 2143.00
16:29:35:323 -> 2078.00
16:29:35:323 -> 2105.00
16:29:35:323 -> 2260.00
16:29:35:323 -> 2292.00
16:29:35:323 -> 2239.00
16:29:35:323 -> 2101.00
16:29:35:323 -> 2056.00
16:29:35:323 -> 2123.00
16:29:35:323 -> 2106.00
16:29:35:328 -> 2201.00
16:29:35:328 -> 2052.00
16:29:35:328 -> 2059.00
16:29:35:328 -> 2147.00
16:29:35:328 -> 2164.00
16:29:35:328 -> 2103.00
16:29:35:328 -> 2118.00
16:29:35:328 -> 2146.00
16:29:35:329 -> 2106.00
16:29:35:331 -> 2189.00
16:29:35:332 -> 2272.00
16:29:35:333 -> 2277.00
16:29:35:334 -> 2244.00
16:29:35:335 -> 2225.00
16:29:35:336 -> 2219.00
16:29:35:338 -> 2215.00
16:29:35:339 -> 2250.00
16:29:35:340 -> 2163.00
16:29:35:341 -> 2124.00
16:29:35:342 -> 2061.00
16:29:35:344 -> 2084.00
16:29:35:345 -> 2176.00
16:29:35:346 -> 2230.00
16:29:35:347 -> 2252.00
16:29:35:348 -> 2152.00
16:29:35:350 -> 2185.00
16:29:35:351 -> 2186.00
16:29:35:352 -> 2153.00
16:29:35:354 -> 2149.00
16:29:35:355 -> 2198.00
16:29:35:356 -> 2203.00
16:29:35:357 -> 2234.00
16:29:35:358 -> 2240.00
16:29:35:359 -> 2230.00
16:29:35:360 -> 2248.00
16:29:35:362 -> 2175.00
16:29:35:363 -> 2169.00
16:29:35:364 -> 2193.00
16:29:35:365 -> 2157.00
16:29:35:366 -> 2092.00
16:29:35:367 -> 2172.00
16:29:35:369 -> 2198.00
16:29:35:370 -> 2131.00
16:29:35:373 -> 2007.00
16:29:35:373 -> 2096.00
16:29:35:373 -> 2139.00
16:29:35:383 -> 2038.00
16:29:35:383 -> 2050.00
16:29:35:383 -> 2104.00
16:29:35:383 -> 2293.00
16:29:35:383 -> 2194.00
16:29:35:383 -> 2183.00
16:29:35:383 -> 2148.00
16:29:35:419 -> 2261.00
16:29:35:419 -> 2255.00
16:29:35:419 -> 2279.00
16:29:35:419 -> 2243.00
16:29:35:419 -> 2148.00
16:29:35:419 -> 2193.00
16:29:35:419 -> 2195.00
16:29:35:419 -> 2199.00
16:29:35:419 -> 2158.00
16:29:35:419 -> 2171.00
16:29:35:419 -> 2219.00
16:29:35:420 -> 2190.00
16:29:35:420 -> 2167.00
16:29:35:420 -> 2191.00
16:29:35:420 -> 2174.00
16:29:35:420 -> 2220.00
16:29:35:420 -> 2188.00
16:29:35:420 -> 2178.00
16:29:35:420 -> 2250.00
16:29:35:420 -> 2126.00
16:29:35:420 -> 2124.00
16:29:35:420 -> 2100.00
16:29:35:420 -> 2171.00
16:29:35:420 -> 2157.00
16:29:35:420 -> 2216.00
16:29:35:420 -> 2189.00
16:29:35:420 -> 2176.00
16:29:35:420 -> 2153.00
16:29:35:420 -> 2229.00
16:29:35:420 -> 2256.00
16:29:35:420 -> 2217.00
16:29:35:420 -> 2222.00
16:29:35:421 -> 2169.00
16:29:35:427 -> 2128.00
16:29:35:427 -> 2125.00
16:29:35:427 -> 2115.00
16:29:35:427 -> 2056.00
16:29:35:428 -> 2021.00
16:29:35:428 -> 2181.00
16:29:35:429 -> 2151.00
16:29:35:432 -> 2212.00
16:29:35:434 -> 2069.00
16:29:35:434 -> 2135.00
16:29:35:436 -> 2108.00
16:29:35:436 -> 2144.00
16:29:35:437 -> 2197.00
16:29:35:439 -> 2197.00
16:29:35:440 -> 2166.00
16:29:35:440 -> 2073.00
16:29:35:441 -> 2170.00
16:29:35:443 -> 2207.00
16:29:35:444 -> 2191.00
16:29:35:445 -> 2225.00
16:29:35:446 -> 2273.00
16:29:35:447 -> 2296.00
16:29:35:448 -> 2198.00
16:29:35:450 -> 2044.00
16:29:35:451 -> 2153.00
16:29:35:452 -> 2237.00
16:29:35:453 -> 2138.00
16:29:35:454 -> 2100.00
16:29:35:456 -> 2113.00
16:29:35:457 -> 2178.00
16:29:35:458 -> 2264.00
16:29:35:459 -> 2219.00
16:29:35:460 -> 2254.00
16:29:35:461 -> 2237.00
16:29:35:463 -> 2195.00
16:29:35:464 -> 2216.00
16:29:35:467 -> 2210.00
16:29:35:471 -> 2208.00
16:29:35:471 -> 2178.00
16:29:35:471 -> 2083.00
16:29:35:471 -> 2113.00
16:29:35:471 -> 2169.00
16:29:35:472 -> 2247.00
16:29:35:474 -> 2284.00
16:29:35:475 -> 2293.00
16:29:35:476 -> 2224.00
16:29:35:477 -> 2204.00
16:29:35:478 -> 2203.00
16:29:35:479 -> 2137.00
16:29:35:481 -> 2183.00
16:29:35:482 -> 2249.00
16:29:35:500 -> 2180.00
16:29:35:508 -> 2105.00
16:29:35:508 -> 2109.00
16:29:35:508 -> 2162.00
16:29:35:508 -> 2131.00
16:29:35:508 -> 2109.00
16:29:35:508 -> 2080.00
16:29:35:508 -> 2167.00
16:29:35:508 -> 2157.00
16:29:35:508 -> 2269.00
16:29:35:508 -> 2339.00
16:29:35:508 -> 2191.00
16:29:35:508 -> 2000.00
16:29:35:508 -> 2160.00
16:29:35:508 -> 2208.00
16:29:35:508 -> 2218.00
16:29:35:508 -> 2204.00
16:29:35:508 -> 2193.00
16:29:35:508 -> 2129.00
16:29:35:526 -> 2056.00
16:29:35:526 -> 2015.00
16:29:35:526 -> 2073.00
16:29:35:526 -> 2111.00
16:29:35:526 -> 2138.00
16:29:35:526 -> 2203.00
16:29:35:526 -> 2270.00
16:29:35:526 -> 2257.00
16:29:35:526 -> 2140.00
16:29:35:526 -> 2144.00
16:29:35:526 -> 2205.00
16:29:35:526 -> 2161.00
16:29:35:526 -> 2205.00
16:29:35:526 -> 2210.00
16:29:35:526 -> 2190.00
16:29:35:526 -> 2166.00
16:29:35:526 -> 2223.00
16:29:35:526 -> 2287.00
16:29:35:538 -> 2224.00
16:29:35:538 -> 2100.00
16:29:35:538 -> 2136.00
16:29:35:538 -> 2145.00
16:29:35:538 -> 2178.00
16:29:35:538 -> 2072.00
16:29:35:538 -> 2160.00
16:29:35:538 -> 2241.00
16:29:35:538 -> 2134.00
16:29:35:538 -> 2221.00
16:29:35:544 -> 2217.00
16:29:35:544 -> 2214.00
16:29:35:544 -> 2248.00
16:29:35:544 -> 2226.00
16:29:35:544 -> 2089.00
16:29:35:554 -> 2167.00
16:29:35:554 -> 2167.00
16:29:35:554 -> 2206.00
16:29:35:554 -> 2130.00
16:29:35:554 -> 2126.00
16:29:35:554 -> 2221.00
16:29:35:554 -> 2258.00
16:29:35:554 -> 2226.00
16:29:35:560 -> 2193.00
16:29:35:560 -> 2231.00
16:29:35:560 -> 2152.00
16:29:35:560 -> 2162.00
16:29:35:560 -> 2145.00
16:29:35:560 -> 2185.00
16:29:35:562 -> 2111.00
16:29:35:563 -> 2286.00
16:29:35:564 -> 2197.00
16:29:35:566 -> 2126.00
16:29:35:567 -> 2249.00
16:29:35:567 -> 2225.00
16:29:35:569 -> 2299.00
16:29:35:570 -> 2169.00
16:29:35:571 -> 2085.00
16:29:35:572 -> 2143.00
16:29:35:573 -> 2235.00
16:29:35:577 -> 2213.00
16:29:35:577 -> 2264.00
16:29:35:577 -> 2224.00
16:29:35:584 -> 2272.00
16:29:35:584 -> 2131.00
16:29:35:584 -> 2103.00
16:29:35:584 -> 2149.00
16:29:35:584 -> 2164.00
16:29:35:604 -> 2165.00
16:29:35:604 -> 2242.00
16:29:35:604 -> 2225.00
16:29:35:604 -> 2189.00
16:29:35:604 -> 2130.00
16:29:35:604 -> 2115.00
16:29:35:604 -> 2164.00
16:29:35:604 -> 2173.00
16:29:35:604 -> 2210.00
16:29:35:604 -> 2192.00
16:29:35:604 -> 2179.00
16:29:35:604 -> 2143.00
16:29:35:604 -> 2188.00
16:29:35:604 -> 2282.00
16:29:35:604 -> 2261.00
16:29:35:604 -> 2213.00
16:29:35:604 -> 2249.00
16:29:35:617 -> 2318.00
16:29:35:617 -> 2161.00
16:29:35:617 -> 2102.00
16:29:35:617 -> 2152.00
16:29:35:617 -> 2163.00
16:29:35:617 -> 2254.00
16:29:35:617 -> 2298.00
16:29:35:623 -> 2247.00
16:29:35:623 -> 2221.00
16:29:35:623 -> 2208.00
16:29:35:623 -> 2195.00
16:29:35:623 -> 2205.00
16:29:35:623 -> 2188.00
16:29:35:623 -> 2187.00
16:29:35:623 -> 2218.00
16:29:35:623 -> 2221.00
16:29:35:628 -> 2322.00
16:29:35:628 -> 2153.00
16:29:35:628 -> 2152.00
16:29:35:628 -> 2122.00
16:29:35:632 -> 2313.00
16:29:35:632 -> 2178.00
16:29:35:632 -> 2139.00
16:29:35:632 -> 2176.00
16:29:35:635 -> 2229.00
16:29:35:635 -> 2313.00
16:29:35:637 -> 2241.00
16:29:35:637 -> 2197.00
16:29:35:639 -> 2149.00
16:29:35:639 -> 2184.00
16:29:35:645 -> 2168.00
16:29:35:645 -> 2165.00
16:29:35:645 -> 2178.00
16:29:35:645 -> 2232.00
16:29:35:695 -> 2267.00
16:29:35:695 -> 2335.00
16:29:35:695 -> 2173.00
16:29:35:695 -> 2141.00
16:29:35:695 -> 2173.00
16:29:35:695 -> 2259.00
16:29:35:695 -> 2189.00
16:29:35:695 -> 2216.00
16:29:35:695 -> 2163.00
16:29:35:695 -> 2143.00
16:29:35:695 -> 2215.00
16:29:35:695 -> 2112.00
16:29:35:695 -> 2175.00
16:29:35:695 -> 2202.00
16:29:35:695 -> 2197.00
16:29:35:695 -> 2208.00
16:29:35:695 -> 2140.00
16:29:35:695 -> 2104.00
16:29:35:695 -> 2141.00
16:29:35:695 -> 2157.00
16:29:35:695 -> 2213.00
16:29:35:695 -> 2174.00
16:29:35:695 -> 2260.00
16:29:35:695 -> 2229.00
16:29:35:695 -> 2239.00
16:29:35:695 -> 2156.00
16:29:35:695 -> 2053.00
16:29:35:695 -> 2149.00
16:29:35:695 -> 2215.00
16:29:35:695 -> 2216.00
16:29:35:695 -> 2254.00
16:29:35:695 -> 2377.00
16:29:35:695 -> 2294.00
16:29:35:695 -> 2250.00
16:29:35:695 -> 2155.00
16:29:35:695 -> 2175.00
16:29:35:695 -> 2165.00
16:29:35:695 -> 2115.00
16:29:35:695 -> 2167.00
16:29:35:695 -> 2251.00
16:29:35:695 -> 2333.00
16:29:35:695 -> 2154.00
16:29:35:737 -> 2149.00
16:29:35:737 -> 2146.00
16:29:35:737 -> 2233.00
16:29:35:737 -> 2257.00
16:29:35:737 -> 2215.00
16:29:35:737 -> 2258.00
16:29:35:737 -> 2269.00
16:29:35:737 -> 2271.00
16:29:35:737 -> 2300.00
16:29:35:737 -> 2154.00
16:29:35:737 -> 2157.00
16:29:35:737 -> 2163.00
16:29:35:737 -> 2120.00
16:29:35:737 -> 2275.00
16:29:35:737 -> 2203.00
16:29:35:737 -> 2229.00
16:29:35:737 -> 2237.00
16:29:35:737 -> 2319.00
16:29:35:737 -> 2237.00
16:29:35:737 -> 2223.00
16:29:35:737 -> 2254.00
16:29:35:737 -> 2287.00
16:29:35:737 -> 2204.00
16:29:35:737 -> 2216.00
16:29:35:737 -> 2232.00
16:29:35:737 -> 2221.00
16:29:35:737 -> 2325.00
16:29:35:737 -> 2201.00
16:29:35:737 -> 2128.00
16:29:35:737 -> 2122.00
16:29:35:737 -> 2231.00
16:29:35:737 -> 2256.00
16:29:35:737 -> 2224.00
16:29:35:737 -> 2196.00
16:29:35:779 -> 2204.00
16:29:35:779 -> 2328.00
16:29:35:779 -> 2215.00
16:29:35:779 -> 2251.00
16:29:35:779 -> 2314.00
16:29:35:779 -> 2179.00
16:29:35:779 -> 2149.00
16:29:35:779 -> 2011.00
16:29:35:779 -> 2097.00
16:29:35:779 -> 2131.00
16:29:35:779 -> 2179.00
16:29:35:779 -> 2206.00
16:29:35:779 -> 2220.00
16:29:35:779 -> 2175.00
16:29:35:779 -> 2131.00
16:29:35:779 -> 2128.00
16:29:35:779 -> 2170.00
16:29:35:779 -> 2207.00
16:29:35:779 -> 2197.00
16:29:35:779 -> 2222.00
16:29:35:779 -> 2177.00
16:29:35:779 -> 2150.00
16:29:35:779 -> 2174.00
16:29:35:779 -> 2178.00
16:29:35:779 -> 2239.00
16:29:35:779 -> 2339.00
16:29:35:779 -> 2229.00
16:29:35:779 -> 2094.00
16:29:35:779 -> 2111.00
16:29:35:779 -> 2243.00
16:29:35:779 -> 2269.00
16:29:35:779 -> 2245.00
16:29:35:779 -> 2170.00
16:29:35:779 -> 2256.00
16:29:35:779 -> 2262.00
16:29:35:779 -> 2228.00
16:29:35:779 -> 2225.00
16:29:35:783 -> 2327.00
16:29:35:783 -> 2236.00
16:29:35:783 -> 2232.00
16:29:35:814 -> 2241.00
16:29:35:814 -> 2226.00
16:29:35:814 -> 2255.00
16:29:35:814 -> 2235.00
16:29:35:814 -> 2235.00
16:29:35:814 -> 2135.00
16:29:35:814 -> 2086.00
16:29:35:814 -> 2055.00
16:29:35:814 -> 2235.00
16:29:35:814 -> 2274.00
16:29:35:814 -> 2269.00
16:29:35:814 -> 2211.00
16:29:35:814 -> 2215.00
16:29:35:814 -> 2256.00
16:29:35:814 -> 2225.00
16:29:35:814 -> 2215.00
16:29:35:814 -> 2219.00
16:29:35:814 -> 2236.00
16:29:35:814 -> 2259.00
16:29:35:814 -> 2209.00
16:29:35:814 -> 2184.00
16:29:35:814 -> 2155.00
16:29:35:814 -> 2166.00
16:29:35:814 -> 2138.00
16:29:35:814 -> 2133.00
16:29:35:814 -> 2089.00
16:29:35:835 -> 2086.00
16:29:35:835 -> 2004.00
16:29:35:835 -> 2201.00
16:29:35:835 -> 2322.00
16:29:35:835 -> 2274.00
16:29:35:835 -> 2232.00
16:29:35:835 -> 2248.00
16:29:35:835 -> 2234.00
16:29:35:835 -> 2273.00
16:29:35:835 -> 2233.00
16:29:35:835 -> 2227.00
16:29:35:835 -> 2195.00
16:29:35:835 -> 2192.00
16:29:35:835 -> 2181.00
16:29:35:835 -> 2190.00
16:29:35:835 -> 2228.00
16:29:35:835 -> 2219.00
16:29:35:835 -> 2195.00
16:29:35:849 -> 2093.00
16:29:35:849 -> 2097.00
16:29:35:849 -> 2094.00
16:29:35:849 -> 2195.00
16:29:35:849 -> 2241.00
16:29:35:849 -> 2161.00
16:29:35:849 -> 2140.00
16:29:35:849 -> 2200.00
16:29:35:849 -> 2272.00
16:29:35:849 -> 2088.00
16:29:35:849 -> 2103.00
16:29:35:849 -> 2201.00
16:29:35:858 -> 2248.00
16:29:35:858 -> 2253.00
16:29:35:858 -> 2271.00
16:29:35:858 -> 2226.00
16:29:35:858 -> 2257.00
16:29:35:858 -> 2321.00
16:29:35:858 -> 2153.00
16:29:35:875 -> 2119.00
16:29:35:875 -> 2135.00
16:29:35:875 -> 2208.00
16:29:35:875 -> 2242.00
16:29:35:875 -> 2242.00
16:29:35:875 -> 2229.00
16:29:35:875 -> 2296.00
16:29:35:875 -> 2294.00
16:29:35:875 -> 2209.00
16:29:35:875 -> 2161.00
16:29:35:875 -> 2207.00
16:29:35:875 -> 2096.00
16:29:35:875 -> 2167.00
16:29:35:875 -> 2214.00
16:29:35:875 -> 2251.00
16:29:35:877 -> 2247.00
16:29:35:877 -> 2263.00
16:29:35:878 -> 2214.00
16:29:35:879 -> 2265.00
16:29:35:880 -> 2236.00
16:29:35:882 -> 2193.00
16:29:35:883 -> 2209.00
16:29:35:884 -> 2307.00
16:29:35:886 -> 2307.00
16:29:35:887 -> 2214.00
16:29:35:888 -> 2138.00
16:29:35:889 -> 2179.00
16:29:35:890 -> 2142.00
16:29:35:891 -> 2176.00
16:29:35:892 -> 2202.00
16:29:35:893 -> 2194.00
16:29:35:895 -> 2191.00
16:29:35:899 -> 2201.00
16:29:35:899 -> 2193.00
16:29:35:899 -> 2194.00
16:29:35:901 -> 2183.00
16:29:35:901 -> 2179.00
16:29:35:903 -> 2209.00
16:29:35:903 -> 2226.00
16:29:35:904 -> 2196.00
16:29:35:905 -> 2193.00
16:29:35:906 -> 2114.00
16:29:35:908 -> 2079.00
16:29:35:909 -> 2200.00
16:29:35:910 -> 2165.00
16:29:35:911 -> 2169.00
16:29:35:912 -> 2169.00
16:29:35:914 -> 2144.00
16:29:35:915 -> 2196.00
16:29:35:916 -> 2252.00
16:29:35:917 -> 2261.00
16:29:35:948 -> 2271.00
16:29:35:950 -> 2235.00
16:29:35:950 -> 2177.00
16:29:35:950 -> 2194.00
16:29:35:950 -> 2156.00
16:29:35:950 -> 2164.00
16:29:35:950 -> 2165.00
16:29:35:950 -> 2172.00
16:29:35:950 -> 2207.00
16:29:35:950 -> 2176.00
16:29:35:950 -> 2182.00
16:29:35:950 -> 2177.00
16:29:35:950 -> 2249.00
16:29:35:950 -> 2236.00
16:29:35:950 -> 2258.00
16:29:35:950 -> 2179.00
16:29:35:950 -> 2229.00
16:29:35:950 -> 2222.00
16:29:35:950 -> 2236.00
16:29:35:950 -> 2271.00
16:29:35:950 -> 2240.00
16:29:35:950 -> 2222.00
16:29:35:950 -> 2226.00
16:29:35:950 -> 2160.00
16:29:35:950 -> 2210.00
16:29:35:950 -> 2232.00
16:29:35:950 -> 2202.00
16:29:35:951 -> 2214.00
16:29:35:953 -> 2227.00
16:29:35:953 -> 2184.00
16:29:35:955 -> 2133.00
16:29:35:960 -> 2252.00
16:29:35:960 -> 2273.00
16:29:35:960 -> 2188.00
16:29:35:960 -> 2206.00
16:29:35:967 -> 2280.00
16:29:35:967 -> 2222.00
16:29:35:967 -> 2186.00
16:29:35:967 -> 2206.00
16:29:35:967 -> 2244.00
16:29:35:967 -> 2215.00
16:29:35:969 -> 2266.00
16:29:35:969 -> 2227.00
16:29:35:972 -> 2165.00
16:29:35:972 -> 2023.00
16:29:35:978 -> 2170.00
16:29:35:978 -> 2180.00
16:29:35:978 -> 2170.00
16:29:35:978 -> 2253.00
16:29:35:978 -> 2219.00
16:29:35:978 -> 2271.00
16:29:35:982 -> 2258.00
16:29:35:982 -> 2236.00
16:29:35:982 -> 2186.00
16:29:35:983 -> 2133.00
16:29:35:988 -> 2153.00
16:29:35:988 -> 2176.00
16:29:35:988 -> 2088.00
16:29:35:988 -> 2163.00
16:29:36:003 -> 2134.00
16:29:36:003 -> 2248.00
16:29:36:003 -> 2198.00
16:29:36:003 -> 2201.00
16:29:36:003 -> 2262.00
16:29:36:003 -> 2217.00
16:29:36:003 -> 2085.00
16:29:36:003 -> 2159.00
16:29:36:003 -> 2234.00
16:29:36:003 -> 2303.00
16:29:36:003 -> 2252.00
16:29:36:003 -> 2236.00
16:29:36:009 -> 2240.00
16:29:36:009 -> 2244.00
16:29:36:009 -> 2239.00
16:29:36:009 -> 2295.00
16:29:36:009 -> 2254.00
16:29:36:009 -> 2214.00
16:29:36:010 -> 2205.00
16:29:36:013 -> 2252.00
16:29:36:013 -> 2263.00
16:29:36:016 -> 2257.00
16:29:36:016 -> 2239.00
16:29:36:016 -> 2210.00
16:29:36:022 -> 2138.00
16:29:36:022 -> 2191.00
16:29:36:022 -> 2260.00
16:29:36:022 -> 2272.00
16:29:36:026 -> 2268.00
16:29:36:026 -> 2246.00
16:29:36:026 -> 2201.00
16:29:36:026 -> 2180.00
16:29:36:028 -> 2185.00
16:29:36:035 -> 2188.00
16:29:36:035 -> 2217.00
16:29:36:035 -> 2215.00
16:29:36:035 -> 2242.00
16:29:36:035 -> 2280.00
16:29:36:035 -> 2280.00
16:29:36:040 -> 2195.00
16:29:36:040 -> 2159.00
16:29:36:040 -> 2188.00
16:29:36:040 -> 2197.00
16:29:36:040 -> 2219.00
16:29:36:078 -> 2249.00
16:29:36:078 -> 2245.00
16:29:36:078 -> 2232.00
16:29:36:078 -> 2189.00
16:29:36:078 -> 2161.00
16:29:36:078 -> 2187.00
16:29:36:078 -> 2223.00
16:29:36:078 -> 2194.00
16:29:36:078 -> 2218.00
16:29:36:078 -> 2226.00
16:29:36:078 -> 2231.00
16:29:36:078 -> 2235.00
16:29:36:078 -> 2159.00
16:29:36:078 -> 2129.00
16:29:36:078 -> 2144.00
16:29:36:078 -> 2164.00
16:29:36:078 -> 2226.00
16:29:36:078 -> 2239.00
16:29:36:078 -> 2234.00
16:29:36:078 -> 2199.00
16:29:36:078 -> 2185.00
16:29:36:078 -> 2228.00
16:29:36:107 -> 2246.00
16:29:36:107 -> 2245.00
16:29:36:107 -> 2193.00
16:29:36:107 -> 2171.00
16:29:36:107 -> 2199.00
16:29:36:107 -> 2177.00
16:29:36:107 -> 2182.00
16:29:36:107 -> 2213.00
16:29:36:107 -> 2209.00
16:29:36:107 -> 2228.00
16:29:36:107 -> 2256.00
16:29:36:107 -> 2219.00
16:29:36:107 -> 2105.00
16:29:36:107 -> 2126.00
16:29:36:107 -> 2300.00
16:29:36:107 -> 2276.00
16:29:36:107 -> 2299.00
16:29:36:107 -> 2247.00
16:29:36:107 -> 2214.00
16:29:36:107 -> 2213.00
16:29:36:107 -> 2227.00
16:29:36:107 -> 2219.00
16:29:36:107 -> 2184.00
16:29:36:107 -> 2186.00
16:29:36:107 -> 2224.00
16:29:36:107 -> 2254.00
16:29:36:107 -> 2240.00
16:29:36:117 -> 2232.00
16:29:36:117 -> 2263.00
16:29:36:117 -> 2219.00
16:29:36:117 -> 2197.00
16:29:36:117 -> 2187.00
16:29:36:117 -> 2202.00
16:29:36:117 -> 2156.00
16:29:36:117 -> 2242.00
16:29:36:117 -> 2223.00
16:29:36:117 -> 2179.00
16:29:36:117 -> 2267.00
16:29:36:117 -> 2275.00
16:29:36:117 -> 2245.00
16:29:36:117 -> 2262.00
16:29:36:117 -> 2247.00
16:29:36:117 -> 2220.00
16:29:36:120 -> 2212.00
16:29:36:120 -> 2265.00
16:29:36:122 -> 2247.00
16:29:36:122 -> 2177.00
16:29:36:124 -> 2185.00
16:29:36:124 -> 2234.00
16:29:36:127 -> 2191.00
16:29:36:127 -> 2190.00
16:29:36:132 -> 2178.00
16:29:36:132 -> 2199.00
16:29:36:132 -> 2185.00
16:29:36:132 -> 2200.00
16:29:36:139 -> 2237.00
16:29:36:139 -> 2313.00
16:29:36:139 -> 2324.00
16:29:36:139 -> 2207.00
16:29:36:139 -> 2150.00
16:29:36:139 -> 2134.00
16:29:36:157 -> 2132.00
16:29:36:157 -> 2174.00
16:29:36:157 -> 2226.00
16:29:36:157 -> 2256.00
16:29:36:157 -> 2232.00
16:29:36:160 -> 2264.00
16:29:36:160 -> 2266.00
16:29:36:160 -> 2230.00
16:29:36:160 -> 2196.00
16:29:36:160 -> 2246.00
16:29:36:160 -> 2229.00
16:29:36:160 -> 2216.00
16:29:36:160 -> 2206.00
16:29:36:160 -> 2182.00
16:29:36:160 -> 2180.00
16:29:36:160 -> 2198.00
16:29:36:160 -> 2217.00
16:29:36:160 -> 2200.00
16:29:36:162 -> 2218.00
16:29:36:170 -> 2260.00
16:29:36:170 -> 2227.00
16:29:36:170 -> 2229.00
16:29:36:170 -> 2295.00
16:29:36:170 -> 2231.00
16:29:36:170 -> 2201.00
16:29:36:170 -> 2168.00
16:29:36:174 -> 2191.00
16:29:36:174 -> 2216.00
16:29:36:174 -> 2234.00
16:29:36:209 -> 2235.00
16:29:36:209 -> 2248.00
16:29:36:209 -> 2287.00
16:29:36:209 -> 2321.00
16:29:36:209 -> 2326.00
16:29:36:209 -> 2295.00
16:29:36:209 -> 2236.00
16:29:36:209 -> 2199.00
16:29:36:209 -> 2166.00
16:29:36:209 -> 2222.00
16:29:36:209 -> 2221.00
16:29:36:209 -> 2150.00
16:29:36:209 -> 2081.00
16:29:36:209 -> 2202.00
16:29:36:209 -> 2255.00
16:29:36:209 -> 2274.00
16:29:36:209 -> 2324.00
16:29:36:209 -> 2334.00
16:29:36:218 -> 2244.00
16:29:36:218 -> 2146.00
16:29:36:218 -> 2194.00
16:29:36:218 -> 2220.00
16:29:36:218 -> 2234.00
16:29:36:218 -> 2185.00
16:29:36:218 -> 2217.00
16:29:36:218 -> 2231.00
16:29:36:218 -> 2176.00
16:29:36:218 -> 2134.00
16:29:36:218 -> 2145.00
16:29:36:218 -> 2232.00
16:29:36:218 -> 2314.00
16:29:36:218 -> 2289.00
16:29:36:218 -> 2291.00
16:29:36:218 -> 2261.00
16:29:36:218 -> 2150.00
16:29:36:218 -> 2208.00
16:29:36:218 -> 2251.00
16:29:36:221 -> 2196.00
16:29:36:221 -> 2287.00
16:29:36:221 -> 2231.00
16:29:36:222 -> 2219.00
16:29:36:225 -> 2241.00
16:29:36:225 -> 2225.00
16:29:36:226 -> 2225.00
16:29:36:228 -> 2223.00
16:29:36:232 -> 2148.00
16:29:36:232 -> 2194.00
16:29:36:232 -> 2098.00
16:29:36:232 -> 2135.00
16:29:36:233 -> 2220.00
16:29:36:234 -> 2290.00
16:29:36:235 -> 2294.00
16:29:36:240 -> 2165.00
16:29:36:240 -> 2248.00
16:29:36:240 -> 2293.00
16:29:36:240 -> 2274.00
16:29:36:242 -> 2237.00
16:29:36:248 -> 2283.00
16:29:36:248 -> 2280.00
16:29:36:248 -> 2237.00
16:29:36:248 -> 2235.00
16:29:36:248 -> 2231.00
16:29:36:251 -> 2227.00
16:29:36:251 -> 2173.00
16:29:36:251 -> 2231.00
16:29:36:263 -> 2214.00
16:29:36:263 -> 2183.00
16:29:36:263 -> 2238.00
16:29:36:263 -> 2328.00
16:29:36:263 -> 2276.00
16:29:36:263 -> 2268.00
16:29:36:263 -> 2291.00
16:29:36:263 -> 2236.00
16:29:36:263 -> 2206.00
16:29:36:263 -> 2232.00
16:29:36:268 -> 2208.00
16:29:36:268 -> 2237.00
16:29:36:268 -> 2252.00
16:29:36:268 -> 2270.00
16:29:36:268 -> 2222.00
16:29:36:284 -> 2232.00
16:29:36:284 -> 2275.00
16:29:36:284 -> 2260.00
16:29:36:284 -> 2211.00
16:29:36:284 -> 2181.00
16:29:36:284 -> 2140.00
16:29:36:284 -> 2200.00
16:29:36:284 -> 2270.00
16:29:36:284 -> 2249.00
16:29:36:284 -> 2236.00
16:29:36:284 -> 2254.00
16:29:36:284 -> 2185.00
16:29:36:284 -> 2218.00
16:29:36:288 -> 2231.00
16:29:36:288 -> 2189.00
16:29:36:288 -> 2194.00
16:29:36:290 -> 2198.00
16:29:36:290 -> 2258.00
16:29:36:291 -> 2218.00
16:29:36:293 -> 2194.00
16:29:36:294 -> 2217.00
16:29:36:298 -> 2221.00
16:29:36:298 -> 2169.00
16:29:36:298 -> 2210.00
16:29:36:298 -> 2221.00
16:29:36:300 -> 2224.00
16:29:36:302 -> 2161.00
16:29:36:303 -> 2153.00
16:29:36:303 -> 2238.00
16:29:36:304 -> 2241.00
16:29:36:309 -> 2255.00
16:29:36:309 -> 2236.00
16:29:36:309 -> 2204.00
16:29:36:309 -> 2225.00
16:29:36:310 -> 2306.00
16:29:36:311 -> 2323.00
16:29:36:312 -> 2285.00
16:29:36:313 -> 2216.00
16:29:36:316 -> 2167.00
16:29:36:317 -> 2165.00
16:29:36:317 -> 2195.00
16:29:36:318 -> 2219.00
16:29:36:319 -> 2211.00
16:29:36:321 -> 2199.00
16:29:36:322 -> 2255.00
16:29:36:323 -> 2274.00
16:29:36:324 -> 2281.00
16:29:36:325 -> 2263.00
16:29:36:326 -> 2290.00
16:29:36:328 -> 2244.00
16:29:36:329 -> 2189.00
16:29:36:330 -> 2232.00
16:29:36:331 -> 2191.00
16:29:36:332 -> 2238.00
16:29:36:334 -> 2215.00
16:29:36:335 -> 2254.00
16:29:36:336 -> 2234.00
16:29:36:338 -> 2230.00
16:29:36:339 -> 2270.00
16:29:36:340 -> 2293.00
16:29:36:341 -> 2254.00
16:29:36:342 -> 2279.00
16:29:36:343 -> 2296.00
16:29:36:344 -> 2264.00
16:29:36:346 -> 2195.00
16:29:36:347 -> 2249.00
16:29:36:348 -> 2231.00
16:29:36:349 -> 2295.00
16:29:36:350 -> 2241.00
16:29:36:351 -> 2150.00
16:29:36:353 -> 2207.00
16:29:36:354 -> 2202.00
16:29:36:356 -> 2170.00
16:29:36:358 -> 2252.00
16:29:36:358 -> 2248.00
16:29:36:359 -> 2266.00
16:29:36:360 -> 2272.00
16:29:36:361 -> 2230.00
16:29:36:362 -> 2277.00
16:29:36:363 -> 2246.00
16:29:36:365 -> 2234.00
16:29:36:366 -> 2227.00
16:29:36:367 -> 2204.00
16:29:36:368 -> 2182.00
16:29:36:369 -> 2179.00
16:29:36:371 -> 2187.00
16:29:36:375 -> 2146.00
16:29:36:375 -> 2248.00
16:29:36:375 -> 2195.00
16:29:36:376 -> 2235.00
16:29:36:377 -> 2297.00
16:29:36:378 -> 2256.00
16:29:36:379 -> 2093.00
16:29:36:380 -> 2176.00
16:29:36:381 -> 2171.00
16:29:36:382 -> 2217.00
16:29:36:384 -> 2179.00
16:29:36:385 -> 2214.00
16:29:36:386 -> 2183.00
16:29:36:387 -> 2158.00
16:29:36:389 -> 2220.00
16:29:36:391 -> 2301.00
16:29:36:393 -> 2227.00
16:29:36:393 -> 2185.00
16:29:36:393 -> 2245.00
16:29:36:395 -> 2294.00
16:29:36:401 -> 2258.00
16:29:36:401 -> 2286.00
16:29:36:401 -> 2256.00
16:29:36:401 -> 2293.00
16:29:36:405 -> 2284.00
16:29:36:405 -> 2304.00
16:29:36:405 -> 2321.00
16:29:36:406 -> 2303.00
16:29:36:406 -> 2290.00
16:29:36:407 -> 2214.00
16:29:36:407 -> 2193.00
16:29:36:409 -> 2234.00
16:29:36:410 -> 2197.00
16:29:36:411 -> 2240.00
16:29:36:412 -> 2270.00
16:29:36:413 -> 2311.00
16:29:36:415 -> 2290.00
16:29:36:416 -> 2211.00
16:29:36:417 -> 2189.00
16:29:36:418 -> 2175.00
16:29:36:419 -> 2221.00
16:29:36:421 -> 2212.00
16:29:36:422 -> 2289.00
16:29:36:423 -> 2267.00
16:29:36:424 -> 2279.00
16:29:36:425 -> 2259.00
16:29:36:426 -> 2262.00
16:29:36:428 -> 2283.00
16:29:36:429 -> 2236.00
16:29:36:430 -> 2222.00
16:29:36:431 -> 2222.00
16:29:36:432 -> 2239.00
16:29:36:434 -> 2273.00
16:29:36:435 -> 2248.00
16:29:36:436 -> 2227.00
16:29:36:437 -> 2245.00
16:29:36:438 -> 2219.00
16:29:36:440 -> 2272.00
16:29:36:441 -> 2189.00
16:29:36:442 -> 2178.00
16:29:36:443 -> 2099.00
16:29:36:444 -> 2137.00
16:29:36:445 -> 2227.00
16:29:36:447 -> 2277.00
16:29:36:475 -> 2358.00
16:29:36:482 -> 2303.00
16:29:36:482 -> 2230.00
16:29:36:482 -> 2179.00
16:29:36:482 -> 2258.00
16:29:36:482 -> 2257.00
16:29:36:482 -> 2218.00
16:29:36:482 -> 2238.00
16:29:36:482 -> 2246.00
16:29:36:482 -> 2249.00
16:29:36:482 -> 2291.00
16:29:36:482 -> 2321.00
16:29:36:482 -> 2266.00
16:29:36:482 -> 2257.00
16:29:36:482 -> 2206.00
16:29:36:482 -> 2129.00
16:29:36:482 -> 2118.00
16:29:36:482 -> 2138.00
16:29:36:482 -> 2276.00
16:29:36:482 -> 2276.00
16:29:36:482 -> 2327.00
16:29:36:482 -> 2201.00
16:29:36:482 -> 2161.00
16:29:36:482 -> 2246.00
16:29:36:482 -> 2323.00
16:29:36:482 -> 2243.00
16:29:36:482 -> 2240.00
16:29:36:482 -> 2193.00
16:29:36:482 -> 2227.00
16:29:36:485 -> 2269.00
16:29:36:485 -> 2209.00
16:29:36:485 -> 2265.00
16:29:36:486 -> 2297.00
16:29:36:489 -> 2244.00
16:29:36:489 -> 2226.00
16:29:36:489 -> 2198.00
16:29:36:491 -> 2213.00
16:29:36:492 -> 2178.00
16:29:36:493 -> 2172.00
16:29:36:494 -> 2210.00
16:29:36:496 -> 2321.00
16:29:36:498 -> 2367.00
16:29:36:498 -> 2268.00
16:29:36:500 -> 2220.00
16:29:36:502 -> 2281.00
16:29:36:502 -> 2224.00
16:29:36:504 -> 2244.00
16:29:36:504 -> 2284.00
16:29:36:510 -> 2268.00
16:29:36:510 -> 2311.00
16:29:36:510 -> 2274.00
16:29:36:510 -> 2207.00
16:29:36:510 -> 2207.00
16:29:36:513 -> 2254.00
16:29:36:513 -> 2253.00
16:29:36:514 -> 2232.00
16:29:36:515 -> 2174.00
16:29:36:516 -> 2241.00
16:29:36:517 -> 2248.00
16:29:36:518 -> 2241.00
16:29:36:519 -> 2262.00
16:29:36:521 -> 2321.00
16:29:36:522 -> 2352.00
16:29:36:523 -> 2325.00
16:29:36:524 -> 2263.00
16:29:36:525 -> 2176.00
16:29:36:526 -> 2166.00
16:29:36:528 -> 2202.00
16:29:36:533 -> 2202.00
16:29:36:533 -> 2209.00
16:29:36:533 -> 2248.00
16:29:36:533 -> 2224.00
16:29:36:535 -> 2296.00
16:29:36:551 -> 2237.00
16:29:36:551 -> 2138.00
16:29:36:551 -> 2220.00
16:29:36:568 -> 2209.00
16:29:36:568 -> 2163.00
16:29:36:568 -> 2169.00
16:29:36:568 -> 2224.00
16:29:36:568 -> 2237.00
16:29:36:568 -> 2282.00
16:29:36:568 -> 2333.00
16:29:36:568 -> 2282.00
16:29:36:568 -> 2288.00
16:29:36:568 -> 2233.00
16:29:36:568 -> 2251.00
16:29:36:568 -> 2232.00
16:29:36:595 -> 2211.00
16:29:36:595 -> 2257.00
16:29:36:595 -> 2275.00
16:29:36:595 -> 2203.00
16:29:36:595 -> 2117.00
16:29:36:595 -> 2181.00
16:29:36:595 -> 2260.00
16:29:36:595 -> 2224.00
16:29:36:595 -> 2209.00
16:29:36:595 -> 2261.00
16:29:36:595 -> 2278.00
16:29:36:595 -> 2342.00
16:29:36:595 -> 2288.00
16:29:36:595 -> 2261.00
16:29:36:595 -> 2267.00
16:29:36:595 -> 2245.00
16:29:36:595 -> 2233.00
16:29:36:595 -> 2248.00
16:29:36:595 -> 2256.00
16:29:36:595 -> 2222.00
16:29:36:595 -> 2213.00
16:29:36:595 -> 2259.00
16:29:36:595 -> 2237.00
16:29:36:595 -> 2304.00
16:29:36:595 -> 2306.00
16:29:36:595 -> 2280.00
16:29:36:595 -> 2261.00
16:29:36:595 -> 2215.00
16:29:36:595 -> 2207.00
16:29:36:595 -> 2174.00
16:29:36:595 -> 2196.00
16:29:36:595 -> 2255.00
16:29:36:595 -> 2254.00
16:29:36:595 -> 2207.00
16:29:36:595 -> 2300.00
16:29:36:595 -> 2303.00
16:29:36:595 -> 2358.00
16:29:36:640 -> 2233.00
16:29:36:640 -> 2281.00
16:29:36:640 -> 2221.00
16:29:36:640 -> 2150.00
16:29:36:640 -> 2235.00
16:29:36:640 -> 2338.00
16:29:36:640 -> 2307.00
16:29:36:640 -> 2273.00
16:29:36:640 -> 2185.00
16:29:36:659 -> 2189.00
16:29:36:659 -> 2189.00
16:29:36:659 -> 2209.00
16:29:36:659 -> 2224.00
16:29:36:659 -> 2192.00
16:29:36:659 -> 2193.00
16:29:36:659 -> 2153.00
16:29:36:659 -> 2125.00
16:29:36:659 -> 2144.00
16:29:36:659 -> 2204.00
16:29:36:659 -> 2225.00
16:29:36:659 -> 2261.00
16:29:36:659 -> 2284.00
16:29:36:659 -> 2279.00
16:29:36:659 -> 2305.00
16:29:36:659 -> 2309.00
16:29:36:659 -> 2295.00
16:29:36:659 -> 2253.00
16:29:36:659 -> 2252.00
16:29:36:659 -> 2221.00
16:29:36:659 -> 2200.00
16:29:36:659 -> 2265.00
16:29:36:659 -> 2260.00
16:29:36:659 -> 2179.00
16:29:36:659 -> 2197.00
16:29:36:659 -> 2238.00
16:29:36:659 -> 2253.00
16:29:36:659 -> 2235.00
16:29:36:659 -> 2243.00
16:29:36:659 -> 2264.00
16:29:36:659 -> 2329.00
16:29:36:659 -> 2345.00
16:29:36:659 -> 2235.00
16:29:36:659 -> 2232.00
16:29:36:659 -> 2208.00
16:29:36:659 -> 2260.00
16:29:36:659 -> 2216.00
16:29:36:659 -> 2243.00
16:29:36:659 -> 2228.00
16:29:36:659 -> 2201.00
16:29:36:659 -> 2262.00
16:29:36:659 -> 2336.00
16:29:36:659 -> 2341.00
16:29:36:659 -> 2231.00
16:29:36:664 -> 2195.00
16:29:36:664 -> 2187.00
16:29:36:664 -> 2218.00
16:29:36:664 -> 2300.00
16:29:36:665 -> 2318.00
16:29:36:667 -> 2219.00
16:29:36:667 -> 2226.00
16:29:36:670 -> 2199.00
16:29:36:670 -> 2201.00
16:29:36:674 -> 2210.00
16:29:36:674 -> 2231.00
16:29:36:674 -> 2237.00
16:29:36:674 -> 2265.00
16:29:36:702 -> 2287.00
16:29:36:702 -> 2231.00
16:29:36:702 -> 2227.00
16:29:36:702 -> 2192.00
16:29:36:702 -> 2220.00
16:29:36:702 -> 2229.00
16:29:36:702 -> 2308.00
16:29:36:702 -> 2229.00
16:29:36:702 -> 2206.00
16:29:36:702 -> 2218.00
16:29:36:702 -> 2247.00
16:29:36:702 -> 2231.00
16:29:36:702 -> 2190.00
16:29:36:702 -> 2218.00
16:29:36:702 -> 2258.00
16:29:36:702 -> 2243.00
16:29:36:702 -> 2287.00
16:29:36:702 -> 2231.00
16:29:36:702 -> 2220.00
16:29:36:702 -> 2271.00
16:29:36:702 -> 2257.00
16:29:36:702 -> 2251.00
16:29:36:702 -> 2222.00
16:29:36:722 -> 2233.00
16:29:36:722 -> 2222.00
16:29:36:722 -> 2237.00
16:29:36:722 -> 2290.00
16:29:36:722 -> 2279.00
16:29:36:722 -> 2236.00
16:29:36:722 -> 2205.00
16:29:36:722 -> 2211.00
16:29:36:722 -> 2169.00
16:29:36:722 -> 2141.00
16:29:36:722 -> 2140.00
16:29:36:722 -> 2140.00
16:29:36:722 -> 2153.00
16:29:36:722 -> 2219.00
16:29:36:722 -> 2282.00
16:29:36:722 -> 2306.00
16:29:36:722 -> 2271.00
16:29:36:752 -> 2282.00
16:29:36:752 -> 2319.00
16:29:36:752 -> 2308.00
16:29:36:752 -> 2290.00
16:29:36:752 -> 2246.00
16:29:36:752 -> 2166.00
16:29:36:752 -> 2165.00
16:29:36:752 -> 2186.00
16:29:36:752 -> 2208.00
16:29:36:752 -> 2233.00
16:29:36:752 -> 2240.00
16:29:36:752 -> 2255.00
16:29:36:794 -> 2202.00
16:29:36:794 -> 2248.00
16:29:36:794 -> 2253.00
16:29:36:794 -> 2296.00
16:29:36:794 -> 2265.00
16:29:36:794 -> 2332.00
16:29:36:794 -> 2288.00
16:29:36:794 -> 2238.00
16:29:36:794 -> 2221.00
16:29:36:794 -> 2228.00
16:29:36:794 -> 2234.00
16:29:36:794 -> 2252.00
16:29:36:794 -> 2245.00
16:29:36:794 -> 2240.00
16:29:36:794 -> 2210.00
16:29:36:794 -> 2234.00
16:29:36:794 -> 2286.00
16:29:36:794 -> 2241.00
16:29:36:794 -> 2263.00
16:29:36:794 -> 2220.00
16:29:36:794 -> 2290.00
16:29:36:794 -> 2320.00
16:29:36:794 -> 2305.00
16:29:36:794 -> 2255.00
16:29:36:794 -> 2265.00
16:29:36:794 -> 2256.00
16:29:36:800 -> 2234.00
16:29:36:800 -> 2209.00
16:29:36:800 -> 2203.00
16:29:36:800 -> 2241.00
16:29:36:800 -> 2261.00
16:29:36:800 -> 2243.00
16:29:36:800 -> 2200.00
16:29:36:800 -> 2174.00
16:29:36:800 -> 2214.00
16:29:36:800 -> 2181.00
16:29:36:800 -> 2161.00
16:29:36:800 -> 2164.00
16:29:36:800 -> 2183.00
16:29:36:800 -> 2265.00
16:29:36:800 -> 2307.00
16:29:36:800 -> 2310.00
16:29:36:800 -> 2191.00
16:29:36:800 -> 2162.00
16:29:36:800 -> 2188.00
16:29:36:800 -> 2230.00
16:29:36:800 -> 2233.00
16:29:36:800 -> 2209.00
16:29:36:800 -> 2181.00
16:29:36:800 -> 2175.00
16:29:36:800 -> 2220.00
16:29:36:800 -> 2181.00
16:29:36:800 -> 2188.00
16:29:36:800 -> 2227.00
16:29:36:805 -> 2173.00
16:29:36:805 -> 2250.00
16:29:36:805 -> 2328.00
16:29:36:805 -> 2300.00
16:29:36:806 -> 2278.00
16:29:36:807 -> 2257.00
16:29:36:808 -> 2244.00
16:29:36:817 -> 2304.00
16:29:36:817 -> 2300.00
16:29:36:817 -> 2272.00
16:29:36:817 -> 2265.00
16:29:36:817 -> 2235.00
16:29:36:817 -> 2290.00
16:29:36:820 -> 2282.00
16:29:36:820 -> 2274.00
16:29:36:820 -> 2260.00
16:29:36:820 -> 2252.00
16:29:36:822 -> 2285.00
16:29:36:823 -> 2258.00
16:29:36:824 -> 2258.00
16:29:36:836 -> 2212.00
16:29:36:836 -> 2242.00
16:29:36:836 -> 2229.00
16:29:36:836 -> 2200.00
16:29:36:836 -> 2164.00
16:29:36:836 -> 2204.00
16:29:36:836 -> 2234.00
16:29:36:836 -> 2259.00
16:29:36:836 -> 2236.00
16:29:36:843 -> 2214.00
16:29:36:843 -> 2292.00
16:29:36:843 -> 2234.00
16:29:36:843 -> 2175.00
16:29:36:843 -> 2205.00
16:29:36:843 -> 2242.00
16:29:36:855 -> 2231.00
16:29:36:855 -> 2244.00
16:29:36:855 -> 2327.00
16:29:36:855 -> 2286.00
16:29:36:855 -> 2259.00
16:29:36:855 -> 2212.00
16:29:36:855 -> 2209.00
16:29:36:855 -> 2226.00
16:29:36:855 -> 2180.00
16:29:36:855 -> 2192.00
16:29:36:859 -> 2269.00
16:29:36:859 -> 2249.00
16:29:36:859 -> 2245.00
16:29:36:859 -> 2293.00
16:29:36:866 -> 2304.00
16:29:36:866 -> 2239.00
16:29:36:866 -> 2223.00
16:29:36:866 -> 2159.00
16:29:36:866 -> 2227.00
16:29:36:866 -> 2252.00
16:29:36:867 -> 2265.00
16:29:36:868 -> 2236.00
16:29:36:869 -> 2272.00
16:29:36:870 -> 2293.00
16:29:36:872 -> 2265.00
16:29:36:873 -> 2268.00
16:29:36:874 -> 2225.00
16:29:36:889 -> 2183.00
16:29:36:889 -> 2254.00
16:29:36:889 -> 2358.00
16:29:36:889 -> 2269.00
16:29:36:889 -> 2094.00
16:29:36:889 -> 2181.00
16:29:36:889 -> 2207.00
16:29:36:889 -> 2224.00
16:29:36:889 -> 2285.00
16:29:36:889 -> 2306.00
16:29:36:889 -> 2286.00
16:29:36:889 -> 2267.00
16:29:36:894 -> 2208.00
16:29:36:894 -> 2192.00
16:29:36:894 -> 2187.00
16:29:36:894 -> 2164.00
16:29:36:895 -> 2150.00
16:29:36:895 -> 2193.00
16:29:36:899 -> 2273.00
16:29:36:899 -> 2288.00
16:29:36:900 -> 2263.00
16:29:36:901 -> 2247.00
16:29:36:914 -> 2212.00
16:29:36:914 -> 2240.00
16:29:36:914 -> 2213.00
16:29:36:914 -> 2206.00
16:29:36:914 -> 2261.00
16:29:36:914 -> 2260.00
16:29:36:914 -> 2229.00
16:29:36:916 -> 2207.00
16:29:36:916 -> 2212.00
16:29:36:916 -> 2258.00
16:29:36:916 -> 2276.00
16:29:36:916 -> 2237.00
16:29:36:916 -> 2202.00
16:29:36:917 -> 2220.00
16:29:36:918 -> 2247.00
16:29:36:926 -> 2324.00
16:29:36:926 -> 2291.00
16:29:36:926 -> 2228.00
16:29:36:926 -> 2219.00
16:29:36:926 -> 2232.00
16:29:36:926 -> 2216.00
16:29:36:926 -> 2249.00
16:29:36:929 -> 2220.00
16:29:36:932 -> 2190.00
16:29:36:932 -> 2201.00
16:29:36:932 -> 2242.00
16:29:36:932 -> 2270.00
16:29:36:933 -> 2241.00
16:29:36:935 -> 2291.00
16:29:36:936 -> 2351.00
16:29:36:937 -> 2291.00
16:29:36:938 -> 2211.00
16:29:36:939 -> 2185.00
16:29:36:941 -> 2220.00
16:29:36:942 -> 2212.00
16:29:36:944 -> 2243.00
16:29:36:945 -> 2229.00
16:29:36:945 -> 2226.00
16:29:36:947 -> 2179.00
16:29:36:950 -> 2212.00
16:29:36:950 -> 2190.00
16:29:36:953 -> 2221.00
16:29:36:953 -> 2252.00
16:29:36:953 -> 2246.00
16:29:36:954 -> 2207.00
16:29:36:955 -> 2262.00
16:29:36:956 -> 2268.00
16:29:36:957 -> 2259.00
16:29:36:958 -> 2235.00
16:29:36:960 -> 2230.00
16:29:36:961 -> 2181.00
16:29:36:962 -> 2203.00
16:29:36:963 -> 2229.00
16:29:36:964 -> 2248.00
16:29:37:004 -> 2207.00
16:29:37:004 -> 2198.00
16:29:37:004 -> 2202.00
16:29:37:004 -> 2238.00
16:29:37:004 -> 2224.00
16:29:37:004 -> 2272.00
16:29:37:004 -> 2278.00
16:29:37:004 -> 2241.00
16:29:37:004 -> 2225.00
16:29:37:004 -> 2251.00
16:29:37:004 -> 2212.00
16:29:37:008 -> 2227.00
16:29:37:008 -> 2181.00
16:29:37:008 -> 2222.00
16:29:37:008 -> 2237.00
16:29:37:008 -> 2207.00
16:29:37:008 -> 2211.00
16:29:37:008 -> 2241.00
16:29:37:008 -> 2220.00
16:29:37:008 -> 2200.00
16:29:37:008 -> 2178.00
16:29:37:008 -> 2182.00
16:29:37:008 -> 2165.00
16:29:37:008 -> 2267.00
16:29:37:008 -> 2269.00
16:29:37:008 -> 2242.00
16:29:37:008 -> 2172.00
16:29:37:008 -> 2153.00
16:29:37:008 -> 2152.00
16:29:37:008 -> 2219.00
16:29:37:008 -> 2197.00
16:29:37:008 -> 2191.00
16:29:37:008 -> 2285.00
16:29:37:008 -> 2285.00
16:29:37:008 -> 2276.00
16:29:37:008 -> 2229.00
16:29:37:011 -> 2232.00
16:29:37:011 -> 2250.00
16:29:37:022 -> 2218.00
16:29:37:022 -> 2245.00
16:29:37:022 -> 2203.00
16:29:37:022 -> 2235.00
16:29:37:022 -> 2243.00
16:29:37:022 -> 2239.00
16:29:37:022 -> 2251.00
16:29:37:022 -> 2243.00
16:29:37:025 -> 2206.00
16:29:37:025 -> 2255.00
16:29:37:025 -> 2257.00
16:29:37:025 -> 2284.00
16:29:37:025 -> 2268.00
16:29:37:026 -> 2260.00
16:29:37:031 -> 2231.00
16:29:37:031 -> 2210.00
16:29:37:031 -> 2201.00
16:29:37:033 -> 2224.00
16:29:37:033 -> 2256.00
16:29:37:038 -> 2265.00
16:29:37:038 -> 2256.00
16:29:37:038 -> 2234.00
16:29:37:038 -> 2242.00
16:29:37:038 -> 2252.00
16:29:37:039 -> 2263.00
16:29:37:051 -> 2180.00
16:29:37:051 -> 2201.00
16:29:37:051 -> 2234.00
16:29:37:051 -> 2244.00
16:29:37:051 -> 2250.00
16:29:37:051 -> 2242.00
16:29:37:051 -> 2273.00
16:29:37:051 -> 2264.00
16:29:37:054 -> 2224.00
16:29:37:054 -> 2194.00
16:29:37:054 -> 2225.00
16:29:37:054 -> 2239.00
16:29:37:055 -> 2276.00
16:29:37:056 -> 2215.00
16:29:37:057 -> 2173.00
16:29:37:058 -> 2213.00
16:29:37:060 -> 2174.00
16:29:37:061 -> 2193.00
16:29:37:075 -> 2197.00
16:29:37:075 -> 2177.00
16:29:37:075 -> 2207.00
16:29:37:075 -> 2243.00
16:29:37:075 -> 2280.00
16:29:37:075 -> 2303.00
16:29:37:075 -> 2278.00
16:29:37:075 -> 2203.00
16:29:37:075 -> 2208.00
16:29:37:075 -> 2234.00
16:29:37:075 -> 2241.00
16:29:37:075 -> 2272.00
16:29:37:077 -> 2227.00
16:29:37:077 -> 2166.00
16:29:37:081 -> 2190.00
16:29:37:081 -> 2210.00
16:29:37:089 -> 2224.00
16:29:37:089 -> 2250.00
16:29:37:089 -> 2288.00
16:29:37:089 -> 2287.00
16:29:37:089 -> 2237.00
16:29:37:089 -> 2212.00
16:29:37:089 -> 2221.00
16:29:37:089 -> 2256.00
16:29:37:092 -> 2201.00
16:29:37:092 -> 2226.00
16:29:37:093 -> 2239.00
16:29:37:094 -> 2235.00
16:29:37:095 -> 2261.00
16:29:37:096 -> 2247.00
16:29:37:098 -> 2245.00
16:29:37:099 -> 2285.00
16:29:37:100 -> 2286.00
16:29:37:101 -> 2265.00
16:29:37:102 -> 2222.00
16:29:37:104 -> 2179.00
16:29:37:107 -> 2216.00
16:29:37:109 -> 2236.00
16:29:37:109 -> 2221.00
16:29:37:109 -> 2241.00
16:29:37:110 -> 2169.00
16:29:37:111 -> 2170.00
16:29:37:112 -> 2196.00
16:29:37:113 -> 2238.00
16:29:37:116 -> 2229.00
16:29:37:116 -> 2279.00
16:29:37:117 -> 2298.00
16:29:37:118 -> 2254.00
16:29:37:119 -> 2237.00
16:29:37:120 -> 2274.00
16:29:37:121 -> 2231.00
16:29:37:123 -> 2221.00
16:29:37:124 -> 2202.00
16:29:37:125 -> 2210.00
16:29:37:126 -> 2149.00
16:29:37:138 -> 2158.00
16:29:37:138 -> 2177.00
16:29:37:138 -> 2218.00
16:29:37:138 -> 2240.00
16:29:37:138 -> 2210.00
16:29:37:138 -> 2188.00
16:29:37:138 -> 2260.00
16:29:37:138 -> 2292.00
16:29:37:138 -> 2268.00
16:29:37:145 -> 2256.00
16:29:37:145 -> 2295.00
16:29:37:145 -> 2273.00
16:29:37:145 -> 2231.00
16:29:37:145 -> 2194.00
16:29:37:150 -> 2172.00
16:29:37:150 -> 2137.00
16:29:37:150 -> 2136.00
16:29:37:150 -> 2131.00
16:29:37:150 -> 2205.00
16:29:37:159 -> 2239.00
16:29:37:159 -> 2282.00
16:29:37:159 -> 2289.00
16:29:37:159 -> 2286.00
16:29:37:159 -> 2302.00
16:29:37:159 -> 2288.00
16:29:37:159 -> 2284.00
16:29:37:159 -> 2259.00
16:29:37:164 -> 2276.00
16:29:37:164 -> 2236.00
16:29:37:164 -> 2249.00
16:29:37:164 -> 2235.00
16:29:37:164 -> 2215.00
16:29:37:166 -> 2166.00
16:29:37:167 -> 2159.00
16:29:37:169 -> 2193.00
16:29:37:169 -> 2192.00
16:29:37:183 -> 2192.00
16:29:37:183 -> 2251.00
16:29:37:183 -> 2250.00
16:29:37:183 -> 2276.00
16:29:37:183 -> 2253.00
16:29:37:183 -> 2272.00
16:29:37:183 -> 2291.00
16:29:37:183 -> 2261.00
16:29:37:183 -> 2300.00
16:29:37:183 -> 2258.00
16:29:37:183 -> 2221.00
16:29:37:184 -> 2196.00
16:29:37:185 -> 2255.00
16:29:37:186 -> 2148.00
16:29:37:187 -> 2208.00
16:29:37:188 -> 2236.00
16:29:37:189 -> 2333.00
16:29:37:190 -> 2252.00
16:29:37:192 -> 2244.00
16:29:37:193 -> 2237.00
16:29:37:194 -> 2308.00
16:29:37:195 -> 2320.00
16:29:37:196 -> 2254.00
16:29:37:198 -> 2174.00
16:29:37:209 -> 2193.00
16:29:37:209 -> 2276.00
16:29:37:209 -> 2277.00
16:29:37:209 -> 2221.00
16:29:37:209 -> 2177.00
16:29:37:209 -> 2179.00
16:29:37:209 -> 2201.00
16:29:37:209 -> 2173.00
16:29:37:209 -> 2139.00
16:29:37:210 -> 2146.00
16:29:37:211 -> 2130.00
16:29:37:212 -> 2186.00
16:29:37:214 -> 2249.00
16:29:37:219 -> 2195.00
16:29:37:219 -> 2190.00
16:29:37:222 -> 2180.00
16:29:37:222 -> 2212.00
16:29:37:222 -> 2302.00
16:29:37:222 -> 2282.00
16:29:37:222 -> 2276.00
16:29:37:223 -> 2250.00
16:29:37:224 -> 2171.00
16:29:37:226 -> 2242.00
16:29:37:228 -> 2220.00
16:29:37:229 -> 2148.00
16:29:37:229 -> 2151.00
16:29:37:230 -> 2091.00
16:29:37:231 -> 2178.00
16:29:37:233 -> 2223.00
16:29:37:233 -> 2181.00
16:29:37:240 -> 2280.00
16:29:37:240 -> 2335.00
16:29:37:240 -> 2292.00
16:29:37:240 -> 2289.00
16:29:37:240 -> 2265.00
16:29:37:264 -> 2279.00
16:29:37:264 -> 2299.00
16:29:37:264 -> 2299.00
16:29:37:264 -> 2249.00
16:29:37:264 -> 2221.00
16:29:37:264 -> 2204.00
16:29:37:264 -> 2167.00
16:29:37:264 -> 2190.00
16:29:37:270 -> 2197.00
16:29:37:270 -> 2237.00
16:29:37:270 -> 2223.00
16:29:37:270 -> 2305.00
16:29:37:270 -> 2231.00
16:29:37:270 -> 2168.00
16:29:37:270 -> 2272.00
16:29:37:270 -> 2318.00
16:29:37:270 -> 2297.00
16:29:37:270 -> 2293.00
16:29:37:270 -> 2168.00
16:29:37:270 -> 2177.00
16:29:37:270 -> 2228.00
16:29:37:270 -> 2272.00
16:29:37:270 -> 2255.00
16:29:37:270 -> 2171.00
16:29:37:270 -> 2144.00
16:29:37:271 -> 2222.00
16:29:37:271 -> 2255.00
16:29:37:273 -> 2211.00
16:29:37:274 -> 2198.00
16:29:37:275 -> 2234.00
16:29:37:276 -> 2235.00
16:29:37:277 -> 2234.00
16:29:37:279 -> 2230.00
16:29:37:280 -> 2242.00
16:29:37:281 -> 2243.00
16:29:37:282 -> 2168.00
16:29:37:283 -> 2208.00
16:29:37:284 -> 2190.00
16:29:37:286 -> 2145.00
16:29:37:287 -> 2088.00
16:29:37:288 -> 2127.00
16:29:37:289 -> 2120.00
16:29:37:290 -> 2212.00
16:29:37:292 -> 2261.00
16:29:37:293 -> 2259.00
16:29:37:294 -> 2306.00
16:29:37:298 -> 2260.00
16:29:37:298 -> 2256.00
16:29:37:299 -> 2257.00
16:29:37:301 -> 2359.00
16:29:37:306 -> 2389.00
16:29:37:306 -> 2332.00
16:29:37:306 -> 2156.00
16:29:37:306 -> 2089.00
16:29:37:306 -> 2128.00
16:29:37:307 -> 2175.00
16:29:37:307 -> 2135.00
16:29:37:308 -> 2158.00
16:29:37:309 -> 2161.00
16:29:37:311 -> 2087.00
16:29:37:312 -> 2172.00
16:29:37:315 -> 2219.00
16:29:37:315 -> 2211.00
16:29:37:349 -> 2243.00
16:29:37:349 -> 2335.00
16:29:37:349 -> 2369.00
16:29:37:349 -> 2264.00
16:29:37:349 -> 2262.00
16:29:37:349 -> 2176.00
16:29:37:349 -> 2145.00
16:29:37:349 -> 2142.00
16:29:37:349 -> 2193.00
16:29:37:349 -> 2295.00
16:29:37:349 -> 2201.00
16:29:37:349 -> 2196.00
16:29:37:349 -> 2166.00
16:29:37:349 -> 2236.00
16:29:37:349 -> 2330.00
16:29:37:349 -> 2272.00
16:29:37:349 -> 2277.00
16:29:37:349 -> 2190.00
16:29:37:349 -> 2070.00
16:29:37:349 -> 2307.00
16:29:37:349 -> 2252.00
16:29:37:349 -> 2269.00
16:29:37:349 -> 2258.00
16:29:37:349 -> 2269.00
16:29:37:349 -> 2273.00
16:29:37:349 -> 2254.00
16:29:37:349 -> 2246.00
16:29:37:349 -> 2218.00
16:29:37:349 -> 2193.00
16:29:37:384 -> 2191.00
16:29:37:384 -> 2138.00
16:29:37:384 -> 2068.00
16:29:37:384 -> 2095.00
16:29:37:384 -> 2176.00
16:29:37:384 -> 2210.00
16:29:37:384 -> 2307.00
16:29:37:384 -> 2374.00
16:29:37:384 -> 2290.00
16:29:37:384 -> 2269.00
16:29:37:384 -> 2252.00
16:29:37:384 -> 2305.00
16:29:37:384 -> 2256.00
16:29:37:384 -> 2254.00
16:29:37:384 -> 2261.00
16:29:37:384 -> 2254.00
16:29:37:384 -> 2184.00
16:29:37:384 -> 2143.00
16:29:37:384 -> 2133.00
16:29:37:384 -> 2177.00
16:29:37:384 -> 2173.00
16:29:37:384 -> 2218.00
16:29:37:384 -> 2234.00
16:29:37:384 -> 2260.00
16:29:37:384 -> 2197.00
16:29:37:384 -> 2177.00
16:29:37:384 -> 2191.00
16:29:37:384 -> 2213.00
16:29:37:384 -> 2251.00
16:29:37:388 -> 2206.00
16:29:37:388 -> 2181.00
16:29:37:388 -> 2182.00
16:29:37:407 -> 2161.00
16:29:37:407 -> 2152.00
16:29:37:407 -> 2189.00
16:29:37:407 -> 2212.00
16:29:37:407 -> 2209.00
16:29:37:407 -> 2174.00
16:29:37:407 -> 2147.00
16:29:37:407 -> 2225.00
16:29:37:407 -> 2307.00
16:29:37:407 -> 2321.00
16:29:37:407 -> 2302.00
16:29:37:407 -> 2239.00
16:29:37:407 -> 2212.00
16:29:37:407 -> 2235.00
16:29:37:407 -> 2258.00
16:29:37:407 -> 2195.00
16:29:37:407 -> 2235.00
16:29:37:423 -> 2240.00
16:29:37:423 -> 2248.00
16:29:37:423 -> 2201.00
16:29:37:423 -> 2160.00
16:29:37:423 -> 2234.00
16:29:37:423 -> 2246.00
16:29:37:423 -> 2185.00
16:29:37:423 -> 2189.00
16:29:37:423 -> 2196.00
16:29:37:423 -> 2182.00
16:29:37:423 -> 2230.00
16:29:37:423 -> 2239.00
16:29:37:423 -> 2268.00
16:29:37:433 -> 2227.00
16:29:37:433 -> 2212.00
16:29:37:433 -> 2222.00
16:29:37:433 -> 2153.00
16:29:37:433 -> 2147.00
16:29:37:433 -> 2164.00
16:29:37:433 -> 2191.00
16:29:37:433 -> 2200.00
16:29:37:433 -> 2237.00
16:29:37:434 -> 2240.00
16:29:37:436 -> 2163.00
16:29:37:437 -> 2124.00
16:29:37:438 -> 2204.00
16:29:37:439 -> 2303.00
16:29:37:440 -> 2356.00
16:29:37:442 -> 2333.00
16:29:37:443 -> 2309.00
16:29:37:444 -> 2272.00
16:29:37:445 -> 2262.00
16:29:37:446 -> 2177.00
16:29:37:447 -> 2215.00
16:29:37:449 -> 2193.00
16:29:37:450 -> 2289.00
16:29:37:451 -> 2184.00
16:29:37:453 -> 2162.00
16:29:37:453 -> 2174.00
16:29:37:455 -> 2217.00
16:29:37:457 -> 2226.00
16:29:37:461 -> 2211.00
16:29:37:461 -> 2186.00
16:29:37:461 -> 2285.00
16:29:37:463 -> 2287.00
16:29:37:463 -> 2321.00
16:29:37:463 -> 2229.00
16:29:37:464 -> 2196.00
16:29:37:465 -> 2225.00
16:29:37:467 -> 2256.00
16:29:37:468 -> 2249.00
16:29:37:469 -> 2242.00
16:29:37:470 -> 2125.00
16:29:37:471 -> 2142.00
16:29:37:472 -> 2228.00
16:29:37:474 -> 2233.00
16:29:37:475 -> 2233.00
16:29:37:476 -> 2230.00
16:29:37:477 -> 2271.00
16:29:37:478 -> 2289.00
16:29:37:480 -> 2204.00
16:29:37:481 -> 2199.00
16:29:37:482 -> 2175.00
16:29:37:483 -> 2199.00
16:29:37:484 -> 2205.00
16:29:37:486 -> 2205.00
16:29:37:487 -> 2202.00
16:29:37:491 -> 2195.00
16:29:37:491 -> 2196.00
16:29:37:491 -> 2135.00
16:29:37:495 -> 2156.00
16:29:37:495 -> 2154.00
16:29:37:495 -> 2109.00
16:29:37:495 -> 2199.00
16:29:37:540 -> 2225.00
16:29:37:540 -> 2240.00
16:29:37:540 -> 2300.00
16:29:37:540 -> 2293.00
16:29:37:540 -> 2277.00
16:29:37:540 -> 2237.00
16:29:37:540 -> 2276.00
16:29:37:540 -> 2202.00
16:29:37:540 -> 2134.00
16:29:37:540 -> 2110.00
16:29:37:540 -> 2193.00
16:29:37:540 -> 2201.00
16:29:37:557 -> 2207.00
16:29:37:557 -> 2205.00
16:29:37:557 -> 2301.00
16:29:37:557 -> 2135.00
16:29:37:557 -> 2262.00
16:29:37:557 -> 2330.00
16:29:37:557 -> 2333.00
16:29:37:557 -> 2284.00
16:29:37:557 -> 2289.00
16:29:37:557 -> 2258.00
16:29:37:557 -> 2256.00
16:29:37:557 -> 2290.00
16:29:37:557 -> 2223.00
16:29:37:557 -> 2189.00
16:29:37:557 -> 2268.00
16:29:37:557 -> 2217.00
16:29:37:557 -> 2151.00
16:29:37:557 -> 2250.00
16:29:37:557 -> 2211.00
16:29:37:557 -> 2197.00
16:29:37:557 -> 2205.00
16:29:37:557 -> 2202.00
16:29:37:557 -> 2175.00
16:29:37:557 -> 2230.00
16:29:37:557 -> 2199.00
16:29:37:557 -> 2218.00
16:29:37:557 -> 2246.00
16:29:37:557 -> 2266.00
16:29:37:557 -> 2263.00
16:29:37:557 -> 2246.00
16:29:37:560 -> 2189.00
16:29:37:560 -> 2193.00
16:29:37:560 -> 2255.00
16:29:37:560 -> 2217.00
16:29:37:560 -> 2212.00
16:29:37:560 -> 2183.00
16:29:37:560 -> 2235.00
16:29:37:560 -> 2309.00
16:29:37:560 -> 2196.00
16:29:37:560 -> 2240.00
16:29:37:560 -> 2190.00
16:29:37:560 -> 2151.00
16:29:37:561 -> 2171.00
16:29:37:562 -> 2215.00
16:29:37:563 -> 2206.00
16:29:37:564 -> 2222.00
16:29:37:565 -> 2211.00
16:29:37:566 -> 2182.00
16:29:37:568 -> 2191.00
16:29:37:569 -> 2153.00
16:29:37:570 -> 2175.00
16:29:37:571 -> 2242.00
16:29:37:572 -> 2271.00
16:29:37:574 -> 2205.00
16:29:37:575 -> 2176.00
16:29:37:576 -> 2192.00
16:29:37:577 -> 2177.00
16:29:37:578 -> 2213.00
16:29:37:580 -> 2209.00
16:29:37:581 -> 2243.00
16:29:37:582 -> 2213.00
16:29:37:584 -> 2197.00
16:29:37:585 -> 2146.00
16:29:37:586 -> 2097.00
16:29:37:587 -> 2177.00
16:29:37:588 -> 2180.00
16:29:37:589 -> 2162.00
16:29:37:590 -> 2211.00
16:29:37:591 -> 2190.00
16:29:37:593 -> 2151.00
16:29:37:594 -> 2182.00
16:29:37:595 -> 2220.00
16:29:37:596 -> 2234.00
16:29:37:602 -> 2180.00
16:29:37:650 -> 2249.00
16:29:37:650 -> 2258.00
16:29:37:650 -> 2307.00
16:29:37:650 -> 2321.00
16:29:37:650 -> 2313.00
16:29:37:650 -> 2276.00
16:29:37:650 -> 2290.00
16:29:37:650 -> 2302.00
16:29:37:650 -> 2293.00
16:29:37:650 -> 2189.00
16:29:37:650 -> 2086.00
16:29:37:650 -> 2175.00
16:29:37:650 -> 2209.00
16:29:37:657 -> 2206.00
16:29:37:657 -> 2237.00
16:29:37:657 -> 2191.00
16:29:37:657 -> 2228.00
16:29:37:657 -> 2208.00
16:29:37:657 -> 2172.00
16:29:37:657 -> 2181.00
16:29:37:657 -> 2231.00
16:29:37:657 -> 2247.00
16:29:37:657 -> 2192.00
16:29:37:657 -> 2227.00
16:29:37:657 -> 2240.00
16:29:37:657 -> 2253.00
16:29:37:657 -> 2182.00
16:29:37:657 -> 2210.00
16:29:37:657 -> 2134.00
16:29:37:657 -> 2130.00
16:29:37:657 -> 2153.00
16:29:37:657 -> 2226.00
16:29:37:657 -> 2206.00
16:29:37:657 -> 2198.00
16:29:37:657 -> 2272.00
16:29:37:657 -> 2267.00
16:29:37:657 -> 2268.00
16:29:37:657 -> 2294.00
16:29:37:657 -> 2266.00
16:29:37:657 -> 2180.00
16:29:37:657 -> 2171.00
16:29:37:657 -> 2221.00
16:29:37:657 -> 2171.00
16:29:37:657 -> 2196.00
16:29:37:657 -> 2158.00
16:29:37:657 -> 2122.00
16:29:37:657 -> 2123.00
16:29:37:657 -> 2119.00
16:29:37:657 -> 2167.00
16:29:37:658 -> 2236.00
16:29:37:658 -> 2190.00
16:29:37:660 -> 2258.00
16:29:37:660 -> 2278.00
16:29:37:662 -> 2235.00
16:29:37:663 -> 2243.00
16:29:37:664 -> 2227.00
16:29:37:665 -> 2211.00
16:29:37:666 -> 2182.00
16:29:37:668 -> 2156.00
16:29:37:669 -> 2178.00
16:29:37:670 -> 2193.00
16:29:37:671 -> 2208.00
16:29:37:672 -> 2219.00
16:29:37:674 -> 2184.00
16:29:37:675 -> 2207.00
16:29:37:676 -> 2297.00
16:29:37:677 -> 2274.00
16:29:37:678 -> 2203.00
16:29:37:680 -> 2222.00
16:29:37:682 -> 2264.00
16:29:37:682 -> 2268.00
16:29:37:683 -> 2269.00
16:29:37:684 -> 2281.00
16:29:37:686 -> 2253.00
16:29:37:687 -> 2207.00
16:29:37:688 -> 2175.00
16:29:37:689 -> 2129.00
16:29:37:691 -> 2138.00
16:29:37:694 -> 2157.00
16:29:37:694 -> 2213.00
16:29:37:694 -> 2251.00
16:29:37:698 -> 2262.00
16:29:37:698 -> 2178.00
16:29:37:698 -> 2166.00
16:29:37:703 -> 2268.00
16:29:37:703 -> 2246.00
16:29:37:703 -> 2205.00
16:29:37:703 -> 2216.00
16:29:37:706 -> 2256.00
16:29:37:706 -> 2221.00
16:29:37:706 -> 2233.00
16:29:37:717 -> 2236.00
16:29:37:717 -> 2272.00
16:29:37:717 -> 2245.00
16:29:37:717 -> 2207.00
16:29:37:717 -> 2215.00
16:29:37:717 -> 2227.00
16:29:37:717 -> 2217.00
16:29:37:717 -> 2161.00
16:29:37:717 -> 2129.00
16:29:37:719 -> 2225.00
16:29:37:719 -> 2292.00
16:29:37:720 -> 2274.00
16:29:37:721 -> 2254.00
16:29:37:722 -> 2229.00
16:29:37:724 -> 2217.00
16:29:37:725 -> 2191.00
16:29:37:726 -> 2171.00
16:29:37:727 -> 2129.00
16:29:37:729 -> 2105.00
16:29:37:732 -> 2126.00
16:29:37:732 -> 2147.00
16:29:37:732 -> 2200.00
16:29:37:733 -> 2223.00
16:29:37:734 -> 2212.00
16:29:37:735 -> 2243.00
16:29:37:741 -> 2210.00
16:29:37:741 -> 2232.00
16:29:37:741 -> 2219.00
16:29:37:741 -> 2105.00
16:29:37:741 -> 2058.00
16:29:37:745 -> 2178.00
16:29:37:745 -> 2237.00
16:29:37:776 -> 2200.00
16:29:37:776 -> 2193.00
16:29:37:776 -> 2215.00
16:29:37:776 -> 2213.00
16:29:37:776 -> 2285.00
16:29:37:776 -> 2347.00
16:29:37:776 -> 2271.00
16:29:37:776 -> 2236.00
16:29:37:776 -> 2240.00
16:29:37:776 -> 2226.00
16:29:37:776 -> 2148.00
16:29:37:776 -> 2257.00
16:29:37:776 -> 2243.00
16:29:37:776 -> 2271.00
16:29:37:776 -> 2291.00
16:29:37:776 -> 2270.00
16:29:37:776 -> 2204.00
16:29:37:776 -> 2151.00
16:29:37:776 -> 2212.00
16:29:37:776 -> 2192.00
16:29:37:782 -> 2181.00
16:29:37:782 -> 2162.00
16:29:37:782 -> 2171.00
16:29:37:782 -> 2248.00
16:29:37:782 -> 2169.00
16:29:37:782 -> 2185.00
16:29:37:782 -> 2198.00
16:29:37:782 -> 2243.00
16:29:37:782 -> 2268.00
16:29:37:782 -> 2280.00
16:29:37:782 -> 2252.00
16:29:37:783 -> 2185.00
16:29:37:783 -> 2215.00
16:29:37:784 -> 2250.00
16:29:37:785 -> 2233.00
16:29:37:787 -> 2178.00
16:29:37:788 -> 2205.00
16:29:37:789 -> 2132.00
16:29:37:790 -> 2148.00
16:29:37:791 -> 2225.00
16:29:37:793 -> 2229.00
16:29:37:794 -> 2257.00
16:29:37:795 -> 2301.00
16:29:37:796 -> 2212.00
16:29:37:797 -> 2194.00
16:29:37:799 -> 2221.00
16:29:37:800 -> 2304.00
16:29:37:801 -> 2208.00
16:29:37:802 -> 2138.00
16:29:37:803 -> 2194.00
16:29:37:805 -> 2269.00
16:29:37:806 -> 2280.00
16:29:37:807 -> 2156.00
16:29:37:808 -> 2158.00
16:29:37:809 -> 2157.00
16:29:37:811 -> 2235.00
16:29:37:812 -> 2128.00
16:29:37:813 -> 2153.00
16:29:37:827 -> 2239.00
16:29:37:827 -> 2234.00
16:29:37:827 -> 2163.00
16:29:37:827 -> 2200.00
16:29:37:827 -> 2311.00
16:29:37:827 -> 2284.00
16:29:37:827 -> 2195.00
16:29:37:827 -> 2207.00
16:29:37:831 -> 2268.00
16:29:37:831 -> 2253.00
16:29:37:831 -> 2220.00
16:29:37:831 -> 2244.00
16:29:37:831 -> 2189.00
16:29:37:835 -> 2118.00
16:29:37:835 -> 2107.00
16:29:37:835 -> 2176.00
16:29:37:835 -> 2222.00
16:29:37:835 -> 2228.00
16:29:37:836 -> 2254.00
16:29:37:837 -> 2168.00
16:29:37:841 -> 2161.00
16:29:37:841 -> 2227.00
16:29:37:841 -> 2203.00
16:29:37:845 -> 2136.00
16:29:37:845 -> 2062.00
16:29:37:845 -> 2233.00
16:29:37:845 -> 2233.00
16:29:37:846 -> 2162.00
16:29:37:847 -> 2268.00
16:29:37:848 -> 2325.00
16:29:37:850 -> 2298.00
16:29:37:851 -> 2223.00
16:29:37:852 -> 2196.00
16:29:37:857 -> 2239.00
16:29:37:857 -> 2262.00
16:29:37:857 -> 2182.00
16:29:37:857 -> 2157.00
16:29:37:861 -> 2213.00
16:29:37:861 -> 2263.00
16:29:37:861 -> 2222.00
16:29:37:864 -> 2124.00
16:29:37:864 -> 2132.00
16:29:37:864 -> 2204.00
16:29:37:865 -> 2234.00
16:29:37:866 -> 2293.00
16:29:37:868 -> 2283.00
16:29:37:869 -> 2197.00
16:29:37:871 -> 2204.00
16:29:37:872 -> 2235.00
16:29:37:873 -> 2219.00
16:29:37:873 -> 2260.00
16:29:37:875 -> 2293.00
16:29:37:876 -> 2321.00
16:29:37:880 -> 2219.00
16:29:37:880 -> 2084.00
16:29:37:880 -> 2095.00
16:29:37:881 -> 2227.00
16:29:37:882 -> 2205.00
16:29:37:883 -> 2230.00
16:29:37:894 -> 2261.00
16:29:37:894 -> 2234.00
16:29:37:894 -> 2201.00
16:29:37:894 -> 2187.00
16:29:37:894 -> 2222.00
16:29:37:894 -> 2237.00
16:29:37:894 -> 2163.00
16:29:37:894 -> 2184.00
16:29:37:894 -> 2224.00
16:29:37:895 -> 2177.00
16:29:37:896 -> 2146.00
16:29:37:897 -> 2179.00
16:29:37:898 -> 2188.00
16:29:37:900 -> 2135.00
16:29:37:901 -> 2149.00
16:29:37:902 -> 2247.00
16:29:37:903 -> 2253.00
16:29:37:905 -> 2255.00
16:29:37:906 -> 2255.00
16:29:37:907 -> 2231.00
16:29:37:908 -> 2144.00
16:29:37:909 -> 2099.00
16:29:37:910 -> 2199.00
16:29:37:912 -> 2254.00
16:29:37:913 -> 2215.00
16:29:37:914 -> 2174.00
16:29:37:946 -> 2165.00
16:29:37:946 -> 2209.00
16:29:37:946 -> 2235.00
16:29:37:946 -> 2186.00
16:29:37:946 -> 2197.00
16:29:37:946 -> 2288.00
16:29:37:946 -> 2284.00
16:29:37:946 -> 2198.00
16:29:37:946 -> 2194.00
16:29:37:946 -> 2189.00
16:29:37:946 -> 2159.00
16:29:37:946 -> 2204.00
16:29:37:946 -> 2232.00
16:29:37:946 -> 2190.00
16:29:37:946 -> 2198.00
16:29:37:946 -> 2217.00
16:29:37:946 -> 2178.00
16:29:37:946 -> 2230.00
16:29:37:946 -> 2277.00
16:29:37:946 -> 2327.00
16:29:37:946 -> 2274.00
16:29:37:946 -> 2195.00
16:29:37:946 -> 2147.00
16:29:37:946 -> 2215.00
16:29:37:946 -> 2246.00
16:29:37:946 -> 2271.00
16:29:37:946 -> 2172.00
16:29:37:983 -> 2164.00
16:29:37:983 -> 2172.00
16:29:37:983 -> 2171.00
16:29:37:983 -> 2184.00
16:29:37:983 -> 2213.00
16:29:37:983 -> 2243.00
16:29:37:983 -> 2250.00
16:29:37:983 -> 2228.00
16:29:37:983 -> 2211.00
16:29:37:983 -> 2245.00
16:29:37:983 -> 2214.00
16:29:37:983 -> 2226.00
16:29:37:983 -> 2234.00
16:29:37:983 -> 2245.00
16:29:37:983 -> 2176.00
16:29:37:983 -> 2219.00
16:29:37:983 -> 2250.00
16:29:37:983 -> 2219.00
16:29:37:983 -> 2154.00
16:29:37:983 -> 2199.00
16:29:37:983 -> 2213.00
16:29:37:983 -> 2215.00
16:29:37:983 -> 2167.00
16:29:37:983 -> 2188.00
16:29:37:983 -> 2181.00
16:29:37:983 -> 2227.00
16:29:37:983 -> 2202.00
16:29:37:983 -> 2287.00
16:29:37:983 -> 2221.00
16:29:37:983 -> 2223.00
16:29:38:014 -> 2167.00
16:29:38:014 -> 2213.00
16:29:38:014 -> 2211.00
16:29:38:014 -> 2212.00
16:29:38:014 -> 2261.00
16:29:38:014 -> 2241.00
16:29:38:014 -> 2176.00
16:29:38:014 -> 2135.00
16:29:38:014 -> 2174.00
16:29:38:014 -> 2230.00
16:29:38:014 -> 2221.00
16:29:38:014 -> 2216.00
16:29:38:014 -> 2213.00
16:29:38:014 -> 2294.00
16:29:38:014 -> 2299.00
16:29:38:014 -> 2285.00
16:29:38:014 -> 2150.00
16:29:38:014 -> 2101.00
16:29:38:014 -> 2241.00
16:29:38:014 -> 2154.00
16:29:38:014 -> 2112.00
16:29:38:014 -> 2121.00
16:29:38:014 -> 2213.00
16:29:38:014 -> 2163.00
16:29:38:014 -> 2130.00
16:29:38:014 -> 2152.00
16:29:38:092 -> 2240.00
16:29:38:092 -> 2270.00
16:29:38:092 -> 2223.00
16:29:38:092 -> 2201.00
16:29:38:092 -> 2230.00
16:29:38:092 -> 2252.00
16:29:38:092 -> 2285.00
16:29:38:092 -> 2253.00
16:29:38:092 -> 2256.00
16:29:38:092 -> 2265.00
16:29:38:092 -> 2231.00
16:29:38:092 -> 2200.00
16:29:38:092 -> 2202.00
16:29:38:092 -> 2260.00
16:29:38:092 -> 2224.00
16:29:38:092 -> 2199.00
16:29:38:092 -> 2212.00
16:29:38:092 -> 2205.00
16:29:38:092 -> 2203.00
16:29:38:092 -> 2215.00
16:29:38:092 -> 2218.00
16:29:38:112 -> 2248.00
16:29:38:112 -> 2215.00
16:29:38:112 -> 2227.00
16:29:38:112 -> 2199.00
16:29:38:112 -> 2196.00
16:29:38:112 -> 2195.00
16:29:38:112 -> 2160.00
16:29:38:112 -> 2113.00
16:29:38:112 -> 2205.00
16:29:38:112 -> 2164.00
16:29:38:112 -> 2158.00
16:29:38:112 -> 2166.00
16:29:38:112 -> 2256.00
16:29:38:112 -> 2265.00
16:29:38:112 -> 2158.00
16:29:38:112 -> 2291.00
16:29:38:112 -> 2275.00
16:29:38:112 -> 2299.00
16:29:38:112 -> 2213.00
16:29:38:112 -> 2248.00
16:29:38:112 -> 2234.00
16:29:38:112 -> 2231.00
16:29:38:112 -> 2199.00
16:29:38:112 -> 2204.00
16:29:38:112 -> 2210.00
16:29:38:112 -> 2191.00
16:29:38:112 -> 2243.00
16:29:38:112 -> 2182.00
16:29:38:112 -> 2211.00
16:29:38:112 -> 2213.00
16:29:38:112 -> 2235.00
16:29:38:112 -> 2265.00
16:29:38:112 -> 2252.00
16:29:38:112 -> 2235.00
16:29:38:112 -> 2249.00
16:29:38:112 -> 2260.00
16:29:38:112 -> 2282.00
16:29:38:112 -> 2275.00
16:29:38:112 -> 2205.00
16:29:38:112 -> 2189.00
16:29:38:112 -> 2156.00
16:29:38:112 -> 2175.00
16:29:38:112 -> 2191.00
16:29:38:112 -> 2178.00
16:29:38:112 -> 2131.00
16:29:38:112 -> 2125.00
16:29:38:112 -> 2200.00
16:29:38:112 -> 2244.00
16:29:38:112 -> 2263.00
16:29:38:112 -> 2261.00
16:29:38:112 -> 2244.00
16:29:38:112 -> 2237.00
16:29:38:112 -> 2242.00
16:29:38:112 -> 2233.00
16:29:38:112 -> 2178.00
16:29:38:115 -> 2235.00
16:29:38:115 -> 2244.00
16:29:38:115 -> 2263.00
16:29:38:115 -> 2322.00
16:29:38:115 -> 2298.00
16:29:38:115 -> 2092.00
16:29:38:115 -> 2061.00
16:29:38:115 -> 2157.00
16:29:38:115 -> 2142.00
16:29:38:116 -> 2093.00
16:29:38:116 -> 2187.00
16:29:38:118 -> 2242.00
16:29:38:120 -> 2236.00
16:29:38:120 -> 2266.00
16:29:38:121 -> 2298.00
16:29:38:122 -> 2260.00
16:29:38:123 -> 2230.00
16:29:38:125 -> 2210.00
16:29:38:126 -> 2184.00
16:29:38:127 -> 2288.00
16:29:38:128 -> 2231.00
16:29:38:129 -> 2196.00
16:29:38:130 -> 2192.00
16:29:38:132 -> 2194.00
16:29:38:133 -> 2221.00
16:29:38:134 -> 2246.00
16:29:38:137 -> 2191.00
16:29:38:158 -> 2175.00
16:29:38:158 -> 2303.00
16:29:38:158 -> 2314.00
16:29:38:158 -> 2313.00
16:29:38:158 -> 2235.00
16:29:38:158 -> 2222.00
16:29:38:158 -> 2223.00
16:29:38:158 -> 2207.00
16:29:38:158 -> 2194.00
16:29:38:158 -> 2227.00
16:29:38:158 -> 2213.00
16:29:38:158 -> 2190.00
16:29:38:158 -> 2189.00
16:29:38:158 -> 2159.00
16:29:38:158 -> 2167.00
16:29:38:158 -> 2201.00
16:29:38:158 -> 2237.00
16:29:38:158 -> 2318.00
16:29:38:162 -> 2269.00
16:29:38:162 -> 2150.00
16:29:38:162 -> 2251.00
16:29:38:162 -> 2254.00
16:29:38:166 -> 2239.00
16:29:38:166 -> 2208.00
16:29:38:166 -> 2194.00
16:29:38:170 -> 2239.00
16:29:38:170 -> 2227.00
16:29:38:170 -> 2234.00
16:29:38:170 -> 2222.00
16:29:38:175 -> 2216.00
16:29:38:175 -> 2155.00
16:29:38:175 -> 2175.00
16:29:38:175 -> 2178.00
16:29:38:176 -> 2231.00
16:29:38:177 -> 2227.00
16:29:38:178 -> 2208.00
16:29:38:179 -> 2253.00
16:29:38:180 -> 2259.00
16:29:38:182 -> 2229.00
16:29:38:184 -> 2193.00
16:29:38:184 -> 2227.00
16:29:38:193 -> 2199.00
16:29:38:193 -> 2161.00
16:29:38:193 -> 2167.00
16:29:38:193 -> 2173.00
16:29:38:193 -> 2144.00
16:29:38:193 -> 2161.00
16:29:38:193 -> 2185.00
16:29:38:194 -> 2225.00
16:29:38:195 -> 2238.00
16:29:38:196 -> 2254.00
16:29:38:197 -> 2264.00
16:29:38:198 -> 2234.00
16:29:38:200 -> 2212.00
16:29:38:201 -> 2204.00
16:29:38:202 -> 2191.00
16:29:38:203 -> 2178.00
16:29:38:204 -> 2139.00
16:29:38:206 -> 2199.00
16:29:38:207 -> 2161.00
16:29:38:208 -> 2131.00
16:29:38:209 -> 2188.00
16:29:38:210 -> 2177.00
16:29:38:211 -> 2228.00
16:29:38:213 -> 2277.00
16:29:38:214 -> 2249.00
16:29:38:215 -> 2285.00
16:29:38:216 -> 2317.00
16:29:38:217 -> 2302.00
16:29:38:219 -> 2293.00
16:29:38:222 -> 2230.00
16:29:38:222 -> 2270.00
16:29:38:223 -> 2241.00
16:29:38:224 -> 2154.00
16:29:38:225 -> 2134.00
16:29:38:226 -> 2195.00
16:29:38:227 -> 2303.00
16:29:38:228 -> 2257.00
16:29:38:229 -> 2211.00
16:29:38:230 -> 2222.00
16:29:38:232 -> 2236.00
16:29:38:233 -> 2226.00
16:29:38:234 -> 2206.00
16:29:38:235 -> 2248.00
16:29:38:236 -> 2256.00
16:29:38:238 -> 2256.00
16:29:38:239 -> 2282.00
16:29:38:240 -> 2221.00
16:29:38:241 -> 2224.00
16:29:38:242 -> 2246.00
16:29:38:244 -> 2288.00
16:29:38:245 -> 2302.00
16:29:38:246 -> 2226.00
16:29:38:247 -> 2185.00
16:29:38:248 -> 2180.00
16:29:38:250 -> 2184.00
16:29:38:251 -> 2188.00
16:29:38:252 -> 2223.00
16:29:38:253 -> 2230.00
16:29:38:254 -> 2211.00
16:29:38:255 -> 2191.00
16:29:38:257 -> 2201.00
16:29:38:258 -> 2194.00
16:29:38:259 -> 2277.00
16:29:38:260 -> 2287.00
16:29:38:261 -> 2376.00
16:29:38:263 -> 2286.00
16:29:38:264 -> 2220.00
16:29:38:265 -> 2221.00
16:29:38:266 -> 2228.00
16:29:38:267 -> 2218.00
16:29:38:269 -> 2139.00
16:29:38:270 -> 2181.00
16:29:38:271 -> 2208.00
16:29:38:272 -> 2156.00
16:29:38:274 -> 2140.00
16:29:38:274 -> 2193.00
16:29:38:276 -> 2221.00
16:29:38:277 -> 2252.00
16:29:38:278 -> 2224.00
16:29:38:279 -> 2310.00
16:29:38:288 -> 2262.00
16:29:38:288 -> 2234.00
16:29:38:288 -> 2226.00
16:29:38:288 -> 2131.00
16:29:38:288 -> 2125.00
16:29:38:288 -> 2145.00
16:29:38:288 -> 2189.00
16:29:38:289 -> 2212.00
16:29:38:290 -> 2236.00
16:29:38:291 -> 2231.00
16:29:38:292 -> 2191.00
16:29:38:294 -> 2229.00
16:29:38:295 -> 2302.00
16:29:38:296 -> 2332.00
16:29:38:298 -> 2256.00
16:29:38:298 -> 2252.00
16:29:38:299 -> 2224.00
16:29:38:301 -> 2231.00
16:29:38:302 -> 2239.00
16:29:38:303 -> 2242.00
16:29:38:304 -> 2245.00
16:29:38:305 -> 2205.00
16:29:38:307 -> 2154.00
16:29:38:308 -> 2243.00
16:29:38:309 -> 2197.00
16:29:38:310 -> 2207.00
16:29:38:311 -> 2202.00
16:29:38:313 -> 2151.00
16:29:38:314 -> 2224.00
16:29:38:315 -> 2192.00
16:29:38:316 -> 2172.00
16:29:38:317 -> 2199.00
16:29:38:319 -> 2260.00
16:29:38:320 -> 2233.00
16:29:38:321 -> 2234.00
16:29:38:322 -> 2248.00
16:29:38:323 -> 2318.00
16:29:38:324 -> 2305.00
16:29:38:326 -> 2230.00
16:29:38:327 -> 2196.00
16:29:38:328 -> 2197.00
16:29:38:329 -> 2244.00
16:29:38:330 -> 2199.00
16:29:38:332 -> 2155.00
16:29:38:333 -> 2200.00
16:29:38:334 -> 2214.00
16:29:38:335 -> 2221.00
16:29:38:336 -> 2197.00
16:29:38:338 -> 2245.00
16:29:38:356 -> 2291.00
16:29:38:356 -> 2267.00
16:29:38:356 -> 2220.00
16:29:38:356 -> 2201.00
16:29:38:356 -> 2240.00
16:29:38:356 -> 2249.00
16:29:38:356 -> 2275.00
16:29:38:356 -> 2244.00
16:29:38:356 -> 2202.00
16:29:38:363 -> 2177.00
16:29:38:363 -> 2252.00
16:29:38:363 -> 2213.00
16:29:38:363 -> 2236.00
16:29:38:363 -> 2227.00
16:29:38:363 -> 2268.00
16:29:38:363 -> 2245.00
16:29:38:363 -> 2188.00
16:29:38:363 -> 2255.00
16:29:38:363 -> 2226.00
16:29:38:363 -> 2206.00
16:29:38:363 -> 2239.00
16:29:38:365 -> 2228.00
16:29:38:365 -> 2141.00
16:29:38:366 -> 2139.00
16:29:38:367 -> 2102.00
16:29:38:371 -> 2168.00
16:29:38:371 -> 2257.00
16:29:38:371 -> 2252.00
16:29:38:373 -> 2273.00
16:29:38:377 -> 2218.00
16:29:38:377 -> 2221.00
16:29:38:377 -> 2267.00
16:29:38:377 -> 2293.00
16:29:38:379 -> 2288.00
16:29:38:379 -> 2241.00
16:29:38:382 -> 2233.00
16:29:38:382 -> 2202.00
16:29:38:383 -> 2196.00
16:29:38:384 -> 2234.00
16:29:38:385 -> 2182.00
16:29:38:386 -> 2168.00
16:29:38:389 -> 2225.00
16:29:38:389 -> 2280.00
16:29:38:399 -> 2277.00
16:29:38:399 -> 2242.00
16:29:38:399 -> 2250.00
16:29:38:399 -> 2236.00
16:29:38:399 -> 2174.00
16:29:38:399 -> 2154.00
16:29:38:399 -> 2190.00
16:29:38:399 -> 2193.00
16:29:38:401 -> 2204.00
16:29:38:401 -> 2183.00
16:29:38:408 -> 2261.00
16:29:38:408 -> 2324.00
16:29:38:408 -> 2294.00
16:29:38:408 -> 2246.00
16:29:38:408 -> 2194.00
16:29:38:408 -> 2208.00
16:29:38:410 -> 2218.00
16:29:38:410 -> 2241.00
16:29:38:411 -> 2223.00
16:29:38:414 -> 2197.00
16:29:38:415 -> 2264.00
16:29:38:418 -> 2249.00
16:29:38:418 -> 2226.00
16:29:38:418 -> 2213.00
16:29:38:455 -> 2204.00
16:29:38:455 -> 2286.00
16:29:38:455 -> 2253.00
16:29:38:455 -> 2266.00
16:29:38:466 -> 2258.00
16:29:38:466 -> 2243.00
16:29:38:466 -> 2225.00
16:29:38:466 -> 2249.00
16:29:38:466 -> 2169.00
16:29:38:466 -> 2179.00
16:29:38:466 -> 2183.00
16:29:38:466 -> 2170.00
16:29:38:466 -> 2244.00
16:29:38:466 -> 2226.00
16:29:38:466 -> 2196.00
16:29:38:466 -> 2219.00
16:29:38:466 -> 2218.00
16:29:38:466 -> 2268.00
16:29:38:466 -> 2277.00
16:29:38:466 -> 2211.00
16:29:38:466 -> 2181.00
16:29:38:466 -> 2206.00
16:29:38:466 -> 2228.00
16:29:38:466 -> 2266.00
16:29:38:466 -> 2264.00
16:29:38:466 -> 2253.00
16:29:38:466 -> 2294.00
16:29:38:466 -> 2222.00
16:29:38:466 -> 2214.00
16:29:38:466 -> 2219.00
16:29:38:466 -> 2154.00
16:29:38:466 -> 2171.00
16:29:38:466 -> 2250.00
16:29:38:466 -> 2211.00
16:29:38:466 -> 2207.00
16:29:38:493 -> 2225.00
16:29:38:493 -> 2133.00
16:29:38:493 -> 2151.00
16:29:38:493 -> 2236.00
16:29:38:493 -> 2279.00
16:29:38:493 -> 2304.00
16:29:38:493 -> 2196.00
16:29:38:493 -> 2184.00
16:29:38:493 -> 2236.00
16:29:38:493 -> 2239.00
16:29:38:493 -> 2334.00
16:29:38:493 -> 2297.00
16:29:38:493 -> 2279.00
16:29:38:493 -> 2253.00
16:29:38:493 -> 2165.00
16:29:38:493 -> 2231.00
16:29:38:493 -> 2240.00
16:29:38:493 -> 2243.00
16:29:38:493 -> 2264.00
16:29:38:493 -> 2291.00
16:29:38:513 -> 2291.00
16:29:38:513 -> 2290.00
16:29:38:513 -> 2198.00
16:29:38:513 -> 2195.00
16:29:38:513 -> 2116.00
16:29:38:513 -> 2122.00
16:29:38:513 -> 2181.00
16:29:38:513 -> 2099.00
16:29:38:513 -> 2071.00
16:29:38:513 -> 2217.00
16:29:38:513 -> 2264.00
16:29:38:513 -> 2241.00
16:29:38:513 -> 2246.00
16:29:38:513 -> 2298.00
16:29:38:513 -> 2297.00
16:29:38:513 -> 2293.00
16:29:38:513 -> 2263.00
16:29:38:513 -> 2248.00
16:29:38:513 -> 2251.00
16:29:38:513 -> 2239.00
16:29:38:513 -> 2240.00
16:29:38:513 -> 2220.00
16:29:38:513 -> 2161.00
16:29:38:513 -> 2128.00
16:29:38:589 -> 2246.00
16:29:38:589 -> 2292.00
16:29:38:589 -> 2299.00
16:29:38:589 -> 2239.00
16:29:38:589 -> 2244.00
16:29:38:589 -> 2230.00
16:29:38:589 -> 2250.00
16:29:38:589 -> 2276.00
16:29:38:589 -> 2220.00
16:29:38:589 -> 2128.00
16:29:38:589 -> 2167.00
16:29:38:589 -> 2233.00
16:29:38:589 -> 2222.00
16:29:38:589 -> 2193.00
16:29:38:589 -> 2163.00
16:29:38:589 -> 2213.00
16:29:38:589 -> 2246.00
16:29:38:589 -> 2249.00
16:29:38:589 -> 2170.00
16:29:38:589 -> 2156.00
16:29:38:589 -> 2184.00
16:29:38:589 -> 2290.00
16:29:38:589 -> 2345.00
16:29:38:589 -> 2327.00
16:29:38:589 -> 2230.00
16:29:38:589 -> 2106.00
16:29:38:589 -> 2183.00
16:29:38:589 -> 2271.00
16:29:38:651 -> 2331.00
16:29:38:651 -> 2279.00
16:29:38:651 -> 2204.00
16:29:38:651 -> 2212.00
16:29:38:651 -> 2217.00
16:29:38:651 -> 2231.00
16:29:38:651 -> 2258.00
16:29:38:651 -> 2215.00
16:29:38:651 -> 2253.00
16:29:38:651 -> 2248.00
16:29:38:651 -> 2258.00
16:29:38:651 -> 2290.00
16:29:38:651 -> 2207.00
16:29:38:651 -> 2191.00
16:29:38:651 -> 2206.00
16:29:38:651 -> 2243.00
16:29:38:651 -> 2275.00
16:29:38:651 -> 2214.00
16:29:38:651 -> 2221.00
16:29:38:651 -> 2263.00
16:29:38:651 -> 2210.00
16:29:38:651 -> 2210.00
16:29:38:651 -> 2240.00
16:29:38:651 -> 2247.00
16:29:38:651 -> 2280.00
16:29:38:651 -> 2264.00
16:29:38:651 -> 2294.00
16:29:38:651 -> 2237.00
16:29:38:651 -> 2221.00
16:29:38:651 -> 2235.00
16:29:38:651 -> 2180.00
16:29:38:651 -> 2222.00
16:29:38:651 -> 2180.00
16:29:38:651 -> 2203.00
16:29:38:651 -> 2205.00
16:29:38:651 -> 2151.00
16:29:38:651 -> 2143.00
16:29:38:651 -> 2184.00
16:29:38:651 -> 2214.00
16:29:38:651 -> 2241.00
16:29:38:651 -> 2209.00
16:29:38:651 -> 2165.00
16:29:38:651 -> 2188.00
16:29:38:651 -> 2184.00
16:29:38:651 -> 2222.00
16:29:38:651 -> 2248.00
16:29:38:651 -> 2240.00
16:29:38:651 -> 2227.00
16:29:38:651 -> 2225.00
16:29:38:651 -> 2245.00
16:29:38:651 -> 2242.00
16:29:38:651 -> 2287.00
16:29:38:651 -> 2275.00
16:29:38:651 -> 2241.00
16:29:38:651 -> 2200.00
16:29:38:651 -> 2193.00
16:29:38:651 -> 2228.00
16:29:38:651 -> 2216.00
16:29:38:651 -> 2231.00
16:29:38:651 -> 2201.00
16:29:38:651 -> 2205.00
16:29:38:651 -> 2303.00
16:29:38:651 -> 2277.00
16:29:38:651 -> 2225.00
16:29:38:651 -> 2261.00
16:29:38:651 -> 2266.00
16:29:38:651 -> 2214.00
16:29:38:651 -> 2252.00
16:29:38:651 -> 2250.00
16:29:38:651 -> 2227.00
16:29:38:651 -> 2326.00
16:29:38:651 -> 2295.00
16:29:38:651 -> 2189.00
16:29:38:651 -> 2244.00
16:29:38:651 -> 2239.00
16:29:38:651 -> 2240.00
16:29:38:651 -> 2232.00
16:29:38:693 -> 2228.00
16:29:38:693 -> 2295.00
16:29:38:693 -> 2270.00
16:29:38:693 -> 2264.00
16:29:38:693 -> 2251.00
16:29:38:693 -> 2219.00
16:29:38:693 -> 2201.00
16:29:38:693 -> 2207.00
16:29:38:693 -> 2224.00
16:29:38:693 -> 2185.00
16:29:38:693 -> 2253.00
16:29:38:693 -> 2229.00
16:29:38:693 -> 2227.00
16:29:38:693 -> 2219.00
16:29:38:693 -> 2227.00
16:29:38:693 -> 2246.00
16:29:38:693 -> 2261.00
16:29:38:693 -> 2296.00
16:29:38:693 -> 2288.00
16:29:38:693 -> 2269.00
16:29:38:693 -> 2259.00
16:29:38:693 -> 2196.00
16:29:38:693 -> 2144.00
16:29:38:693 -> 2239.00
16:29:38:693 -> 2208.00
16:29:38:693 -> 2192.00
16:29:38:693 -> 2157.00
16:29:38:693 -> 2138.00
16:29:38:693 -> 2231.00
16:29:38:693 -> 2338.00
16:29:38:693 -> 2277.00
16:29:38:693 -> 2163.00
16:29:38:693 -> 2218.00
16:29:38:693 -> 2198.00
16:29:38:693 -> 2220.00
16:29:38:693 -> 2171.00
16:29:38:693 -> 2164.00
16:29:38:693 -> 2220.00
16:29:38:693 -> 2214.00
16:29:38:693 -> 2236.00
16:29:38:693 -> 2229.00
16:29:38:693 -> 2169.00
16:29:38:693 -> 2143.00
16:29:38:693 -> 2163.00
16:29:38:693 -> 2170.00
16:29:38:693 -> 2162.00
16:29:38:693 -> 2244.00
16:29:38:693 -> 2293.00
16:29:38:704 -> 2292.00
16:29:38:704 -> 2291.00
16:29:38:704 -> 2306.00
16:29:38:704 -> 2274.00
16:29:38:704 -> 2270.00
16:29:38:704 -> 2239.00
16:29:38:704 -> 2219.00
16:29:38:704 -> 2232.00
16:29:38:704 -> 2217.00
16:29:38:730 -> 2201.00
16:29:38:730 -> 2179.00
16:29:38:730 -> 2233.00
16:29:38:730 -> 2267.00
16:29:38:730 -> 2274.00
16:29:38:730 -> 2253.00
16:29:38:730 -> 2240.00
16:29:38:730 -> 2255.00
16:29:38:730 -> 2237.00
16:29:38:730 -> 2235.00
16:29:38:730 -> 2255.00
16:29:38:730 -> 2239.00
16:29:38:730 -> 2260.00
16:29:38:730 -> 2247.00
16:29:38:730 -> 2234.00
16:29:38:730 -> 2248.00
16:29:38:730 -> 2241.00
16:29:38:730 -> 2204.00
16:29:38:730 -> 2153.00
16:29:38:730 -> 2148.00
16:29:38:730 -> 2194.00
16:29:38:749 -> 2243.00
16:29:38:749 -> 2274.00
16:29:38:749 -> 2262.00
16:29:38:749 -> 2273.00
16:29:38:749 -> 2243.00
16:29:38:749 -> 2249.00
16:29:38:749 -> 2250.00
16:29:38:749 -> 2284.00
16:29:38:749 -> 2268.00
16:29:38:749 -> 2240.00
16:29:38:749 -> 2233.00
16:29:38:749 -> 2235.00
16:29:38:749 -> 2266.00
16:29:38:749 -> 2182.00
16:29:38:749 -> 2230.00
16:29:38:749 -> 2215.00
16:29:38:756 -> 2160.00
16:29:38:756 -> 2174.00
16:29:38:756 -> 2191.00
16:29:38:756 -> 2217.00
16:29:38:756 -> 2202.00
16:29:38:756 -> 2170.00
16:29:38:764 -> 2166.00
16:29:38:764 -> 2163.00
16:29:38:764 -> 2283.00
16:29:38:764 -> 2311.00
16:29:38:764 -> 2263.00
16:29:38:764 -> 2235.00
16:29:38:764 -> 2196.00
16:29:38:792 -> 2268.00
16:29:38:792 -> 2258.00
16:29:38:792 -> 2266.00
16:29:38:792 -> 2287.00
16:29:38:792 -> 2185.00
16:29:38:792 -> 2153.00
16:29:38:792 -> 2211.00
16:29:38:792 -> 2200.00
16:29:38:792 -> 2179.00
16:29:38:792 -> 2167.00
16:29:38:792 -> 2185.00
16:29:38:792 -> 2261.00
16:29:38:792 -> 2237.00
16:29:38:792 -> 2249.00
16:29:38:792 -> 2210.00
16:29:38:792 -> 2209.00
16:29:38:792 -> 2257.00
16:29:38:792 -> 2254.00
16:29:38:792 -> 2331.00
16:29:38:792 -> 2307.00
16:29:38:792 -> 2200.00
16:29:38:792 -> 2200.00
16:29:38:792 -> 2176.00
16:29:38:804 -> 2214.00
16:29:38:804 -> 2280.00
16:29:38:804 -> 2274.00
16:29:38:804 -> 2330.00
16:29:38:804 -> 2299.00
16:29:38:804 -> 2239.00
16:29:38:804 -> 2226.00
16:29:38:804 -> 2271.00
16:29:38:804 -> 2264.00
16:29:38:804 -> 2226.00
16:29:38:804 -> 2185.00
16:29:38:827 -> 2261.00
16:29:38:827 -> 2236.00
16:29:38:827 -> 2219.00
16:29:38:827 -> 2200.00
16:29:38:827 -> 2142.00
16:29:38:827 -> 2227.00
16:29:38:827 -> 2281.00
16:29:38:827 -> 2277.00
16:29:38:827 -> 2264.00
16:29:38:827 -> 2221.00
16:29:38:827 -> 2243.00
16:29:38:827 -> 2273.00
16:29:38:827 -> 2141.00
16:29:38:827 -> 2130.00
16:29:38:827 -> 2227.00
16:29:38:827 -> 2270.00
16:29:38:827 -> 2271.00
16:29:38:827 -> 2301.00
16:29:38:827 -> 2267.00
16:29:38:835 -> 2208.00
16:29:38:835 -> 2209.00
16:29:38:835 -> 2233.00
16:29:38:835 -> 2248.00
16:29:38:835 -> 2241.00
16:29:38:835 -> 2211.00
16:29:38:870 -> 2167.00
16:29:38:870 -> 2196.00
16:29:38:870 -> 2170.00
16:29:38:870 -> 2137.00
16:29:38:870 -> 2157.00
16:29:38:870 -> 2245.00
16:29:38:870 -> 2294.00
16:29:38:870 -> 2296.00
16:29:38:870 -> 2256.00
16:29:38:870 -> 2230.00
16:29:38:870 -> 2251.00
16:29:38:870 -> 2234.00
16:29:38:870 -> 2169.00
16:29:38:870 -> 2207.00
16:29:38:870 -> 2244.00
16:29:38:870 -> 2213.00
16:29:38:870 -> 2216.00
16:29:38:870 -> 2152.00
16:29:38:870 -> 2138.00
16:29:38:870 -> 2146.00
16:29:38:870 -> 2162.00
16:29:38:870 -> 2267.00
16:29:38:870 -> 2216.00
16:29:38:870 -> 2361.00
16:29:38:870 -> 2316.00
16:29:38:870 -> 2253.00
16:29:38:870 -> 2223.00
16:29:38:870 -> 2187.00
16:29:38:870 -> 2205.00
16:29:38:870 -> 2268.00
16:29:38:879 -> 2299.00
16:29:38:879 -> 2280.00
16:29:38:879 -> 2261.00
16:29:38:879 -> 2245.00
16:29:38:879 -> 2268.00
16:29:38:879 -> 2211.00
16:29:38:879 -> 2184.00
16:29:38:879 -> 2268.00
16:29:38:903 -> 2256.00
16:29:38:903 -> 2269.00
16:29:38:903 -> 2228.00
16:29:38:903 -> 2275.00
16:29:38:903 -> 2258.00
16:29:38:903 -> 2228.00
16:29:38:903 -> 2223.00
16:29:38:903 -> 2212.00
16:29:38:903 -> 2239.00
16:29:38:903 -> 2238.00
16:29:38:903 -> 2220.00
16:29:38:903 -> 2227.00
16:29:38:903 -> 2246.00
16:29:38:903 -> 2211.00
16:29:38:903 -> 2275.00
16:29:38:903 -> 2224.00
16:29:38:903 -> 2240.00
16:29:38:903 -> 2219.00
16:29:38:903 -> 2194.00
16:29:38:903 -> 2074.00
16:29:38:921 -> 2204.00
16:29:38:921 -> 2304.00
16:29:38:921 -> 2379.00
16:29:38:921 -> 2329.00
16:29:38:921 -> 2197.00
16:29:38:921 -> 2134.00
16:29:38:921 -> 2244.00
16:29:38:921 -> 2227.00
16:29:38:921 -> 2271.00
16:29:38:921 -> 2276.00
16:29:38:921 -> 2215.00
16:29:38:921 -> 2221.00
16:29:38:921 -> 2253.00
16:29:38:921 -> 2217.00
16:29:38:930 -> 2118.00
16:29:38:930 -> 2118.00
16:29:38:930 -> 2213.00
16:29:38:930 -> 2246.00
16:29:38:930 -> 2263.00
16:29:38:930 -> 2281.00
16:29:38:930 -> 2260.00
16:29:38:930 -> 2194.00
16:29:38:930 -> 2225.00
16:29:38:937 -> 2241.00
16:29:38:937 -> 2195.00
16:29:38:937 -> 2195.00
16:29:38:937 -> 2205.00
16:29:38:937 -> 2203.00
16:29:38:940 -> 2271.00
16:29:38:940 -> 2344.00
16:29:38:940 -> 2344.00
16:29:38:947 -> 2252.00
16:29:38:947 -> 2160.00
16:29:38:947 -> 2222.00
16:29:38:947 -> 2315.00
16:29:38:947 -> 2266.00
16:29:38:947 -> 2216.00
16:29:38:959 -> 2221.00
16:29:38:959 -> 2263.00
16:29:38:959 -> 2267.00
16:29:38:965 -> 2264.00
16:29:38:965 -> 2187.00
16:29:38:965 -> 2193.00
16:29:38:965 -> 2206.00
16:29:38:965 -> 2294.00
16:29:38:965 -> 2321.00
16:29:38:965 -> 2288.00
16:29:38:965 -> 2186.00
16:29:38:965 -> 2164.00
16:29:38:965 -> 2174.00
16:29:38:965 -> 2130.00
16:29:38:969 -> 2188.00
16:29:38:969 -> 2313.00
16:29:38:969 -> 2256.00
16:29:38:969 -> 2243.00
16:29:38:970 -> 2234.00
16:29:38:984 -> 2268.00
16:29:38:984 -> 2352.00
16:29:38:984 -> 2261.00
16:29:38:984 -> 2260.00
16:29:38:984 -> 2241.00
16:29:38:984 -> 2255.00
16:29:38:984 -> 2213.00
16:29:38:984 -> 2170.00
16:29:38:984 -> 2164.00
16:29:38:984 -> 2196.00
16:29:38:984 -> 2260.00
16:29:38:987 -> 2252.00
16:29:38:987 -> 2306.00
16:29:38:987 -> 2214.00
16:29:38:993 -> 2200.00
16:29:38:993 -> 2238.00
16:29:38:993 -> 2262.00
16:29:38:993 -> 2266.00
16:29:38:993 -> 2245.00
16:29:38:995 -> 2244.00
16:29:38:995 -> 2230.00
16:29:39:008 -> 2200.00
16:29:39:008 -> 2184.00
16:29:39:008 -> 2250.00
16:29:39:008 -> 2279.00
16:29:39:008 -> 2261.00
16:29:39:008 -> 2191.00
16:29:39:008 -> 2207.00
16:29:39:008 -> 2240.00
16:29:39:008 -> 2237.00
16:29:39:008 -> 2225.00
16:29:39:015 -> 2210.00
16:29:39:015 -> 2242.00
16:29:39:015 -> 2334.00
16:29:39:015 -> 2240.00
16:29:39:015 -> 2276.00
16:29:39:015 -> 2180.00
16:29:39:016 -> 2171.00
16:29:39:016 -> 2201.00
16:29:39:017 -> 2266.00
16:29:39:020 -> 2258.00
16:29:39:020 -> 2156.00
16:29:39:024 -> 2192.00
16:29:39:024 -> 2191.00
16:29:39:024 -> 2262.00
16:29:39:026 -> 2299.00
16:29:39:026 -> 2224.00
16:29:39:029 -> 2177.00
16:29:39:029 -> 2213.00
16:29:39:038 -> 2166.00
16:29:39:038 -> 2194.00
16:29:39:038 -> 2278.00
16:29:39:038 -> 2260.00
16:29:39:038 -> 2284.00
16:29:39:038 -> 2261.00
16:29:39:038 -> 2307.00
16:29:39:038 -> 2275.00
16:29:39:042 -> 2228.00
16:29:39:042 -> 2194.00
16:29:39:042 -> 2252.00
16:29:39:042 -> 2217.00
16:29:39:048 -> 2214.00
16:29:39:048 -> 2174.00
16:29:39:048 -> 2218.00
16:29:39:048 -> 2402.00
16:29:39:051 -> 2253.00
16:29:39:051 -> 2206.00
16:29:39:051 -> 2065.00
16:29:39:074 -> 2140.00
16:29:39:074 -> 2268.00
16:29:39:074 -> 2325.00
16:29:39:074 -> 2306.00
16:29:39:074 -> 2297.00
16:29:39:074 -> 2269.00
16:29:39:074 -> 2227.00
16:29:39:074 -> 2219.00
16:29:39:074 -> 2230.00
16:29:39:074 -> 2250.00
16:29:39:074 -> 2226.00
16:29:39:074 -> 2148.00
16:29:39:074 -> 2158.00
16:29:39:074 -> 2142.00
16:29:39:074 -> 2198.00
16:29:39:074 -> 2255.00
16:29:39:074 -> 2243.00
16:29:39:074 -> 2190.00
16:29:39:074 -> 2209.00
16:29:39:074 -> 2193.00
16:29:39:082 -> 2168.00
16:29:39:082 -> 2208.00
16:29:39:082 -> 2261.00
16:29:39:082 -> 2262.00
16:29:39:082 -> 2207.00
16:29:39:082 -> 2233.00
16:29:39:101 -> 2229.00
16:29:39:101 -> 2269.00
16:29:39:101 -> 2226.00
16:29:39:101 -> 2249.00
16:29:39:101 -> 2235.00
16:29:39:101 -> 2186.00
16:29:39:101 -> 2215.00
16:29:39:101 -> 2169.00
16:29:39:101 -> 2178.00
16:29:39:101 -> 2271.00
16:29:39:101 -> 2299.00
16:29:39:101 -> 2294.00
16:29:39:101 -> 2288.00
16:29:39:101 -> 2145.00
16:29:39:101 -> 2213.00
16:29:39:101 -> 2306.00
16:29:39:115 -> 2265.00
16:29:39:115 -> 2138.00
16:29:39:115 -> 2157.00
16:29:39:115 -> 2202.00
16:29:39:115 -> 2266.00
16:29:39:115 -> 2174.00
16:29:39:115 -> 2176.00
16:29:39:115 -> 2165.00
16:29:39:115 -> 2201.00
16:29:39:115 -> 2301.00
16:29:39:115 -> 2261.00
16:29:39:115 -> 2169.00
16:29:39:192 -> 2285.00
16:29:39:192 -> 2310.00
16:29:39:192 -> 2355.00
16:29:39:192 -> 2273.00
16:29:39:192 -> 2231.00
16:29:39:192 -> 2221.00
16:29:39:192 -> 2117.00
16:29:39:192 -> 2104.00
16:29:39:211 -> 2294.00
16:29:39:211 -> 2209.00
16:29:39:211 -> 2232.00
16:29:39:211 -> 2289.00
16:29:39:211 -> 2168.00
16:29:39:211 -> 2220.00
16:29:39:211 -> 2246.00
16:29:39:211 -> 2306.00
16:29:39:211 -> 2276.00
16:29:39:211 -> 2265.00
16:29:39:211 -> 2250.00
16:29:39:211 -> 2289.00
16:29:39:211 -> 2198.00
16:29:39:211 -> 2285.00
16:29:39:211 -> 2252.00
16:29:39:211 -> 2271.00
16:29:39:211 -> 2321.00
16:29:39:211 -> 2295.00
16:29:39:211 -> 2176.00
16:29:39:211 -> 2152.00
16:29:39:211 -> 2118.00
16:29:39:211 -> 2208.00
16:29:39:211 -> 2330.00
16:29:39:211 -> 2317.00
16:29:39:211 -> 2265.00
16:29:39:211 -> 2213.00
16:29:39:211 -> 2203.00
16:29:39:211 -> 2298.00
16:29:39:211 -> 2293.00
16:29:39:211 -> 2240.00
16:29:39:211 -> 2208.00
16:29:39:211 -> 2221.00
16:29:39:211 -> 2101.00
16:29:39:211 -> 2137.00
16:29:39:211 -> 2176.00
16:29:39:211 -> 2111.00
16:29:39:211 -> 2152.00
16:29:39:211 -> 2261.00
16:29:39:211 -> 2297.00
16:29:39:211 -> 2271.00
16:29:39:211 -> 2259.00
16:29:39:211 -> 2231.00
16:29:39:211 -> 2258.00
16:29:39:211 -> 2258.00
16:29:39:211 -> 2162.00
16:29:39:211 -> 2172.00
16:29:39:211 -> 2226.00
16:29:39:211 -> 2249.00
16:29:39:211 -> 2202.00
16:29:39:211 -> 2177.00
16:29:39:211 -> 2221.00
16:29:39:211 -> 2199.00
16:29:39:211 -> 2208.00
16:29:39:211 -> 2177.00
16:29:39:211 -> 2187.00
16:29:39:211 -> 2260.00
16:29:39:211 -> 2210.00
16:29:39:211 -> 2309.00
16:29:39:211 -> 2224.00
16:29:39:211 -> 2098.00
16:29:39:211 -> 2319.00
16:29:39:211 -> 2294.00
16:29:39:211 -> 2204.00
16:29:39:211 -> 2304.00
16:29:39:211 -> 2338.00
16:29:39:211 -> 2298.00
16:29:39:211 -> 2303.00
16:29:39:211 -> 2282.00
16:29:39:211 -> 2222.00
16:29:39:211 -> 2208.00
16:29:39:211 -> 2177.00
16:29:39:211 -> 2179.00
16:29:39:220 -> 2214.00
16:29:39:220 -> 2242.00
16:29:39:220 -> 2245.00
16:29:39:220 -> 2292.00
16:29:39:220 -> 2303.00
16:29:39:220 -> 2281.00
16:29:39:220 -> 2323.00
16:29:39:220 -> 2254.00
16:29:39:225 -> 2261.00
16:29:39:225 -> 2254.00
16:29:39:225 -> 2257.00
16:29:39:225 -> 2213.00
16:29:39:232 -> 2191.00
16:29:39:232 -> 2187.00
16:29:39:232 -> 2164.00
16:29:39:232 -> 2140.00
16:29:39:232 -> 2203.00
16:29:39:232 -> 2307.00
16:29:39:242 -> 2275.00
16:29:39:242 -> 2221.00
16:29:39:242 -> 2159.00
16:29:39:242 -> 2181.00
16:29:39:242 -> 2212.00
16:29:39:242 -> 2218.00
16:29:39:242 -> 2228.00
16:29:39:248 -> 2194.00
16:29:39:248 -> 2278.00
16:29:39:248 -> 2255.00
16:29:39:248 -> 2185.00
16:29:39:248 -> 2173.00
16:29:39:248 -> 2202.00
16:29:39:249 -> 2264.00
16:29:39:250 -> 2246.00
16:29:39:250 -> 2279.00
16:29:39:252 -> 2274.00
16:29:39:253 -> 2248.00
16:29:39:254 -> 2267.00
16:29:39:255 -> 2295.00
16:29:39:256 -> 2260.00
16:29:39:257 -> 2260.00
16:29:39:259 -> 2185.00
16:29:39:260 -> 2064.00
16:29:39:262 -> 2165.00
16:29:39:262 -> 2053.00
16:29:39:263 -> 2164.00
16:29:39:265 -> 2195.00
16:29:39:266 -> 2173.00
16:29:39:267 -> 2256.00
16:29:39:268 -> 2288.00
16:29:39:269 -> 2102.00
16:29:39:271 -> 2267.00
16:29:39:272 -> 2318.00
16:29:39:273 -> 2268.00
16:29:39:274 -> 2279.00
16:29:39:276 -> 2253.00
16:29:39:277 -> 2253.00
16:29:39:278 -> 2240.00
16:29:39:279 -> 2221.00
16:29:39:280 -> 2228.00
16:29:39:281 -> 2240.00
16:29:39:282 -> 2319.00
16:29:39:284 -> 2357.00
16:29:39:285 -> 2273.00
16:29:39:286 -> 2242.00
16:29:39:287 -> 2174.00
16:29:39:288 -> 2206.00
16:29:39:290 -> 2201.00
16:29:39:291 -> 2227.00
16:29:39:292 -> 2213.00
16:29:39:301 -> 2284.00
16:29:39:303 -> 2286.00
16:29:39:303 -> 2243.00
16:29:39:303 -> 2235.00
16:29:39:303 -> 2231.00
16:29:39:303 -> 2299.00
16:29:39:303 -> 2197.00
16:29:39:303 -> 2186.00
16:29:39:303 -> 2208.00
16:29:39:306 -> 2222.00
16:29:39:306 -> 2343.00
16:29:39:308 -> 2238.00
16:29:39:308 -> 2243.00
16:29:39:311 -> 2186.00
16:29:39:311 -> 2224.00
16:29:39:311 -> 2330.00
16:29:39:312 -> 2273.00
16:29:39:313 -> 2189.00
16:29:39:314 -> 2195.00
16:29:39:316 -> 2147.00
16:29:39:317 -> 2132.00
16:29:39:318 -> 2182.00
16:29:39:320 -> 2252.00
16:29:39:321 -> 2274.00
16:29:39:322 -> 2258.00
16:29:39:323 -> 2251.00
16:29:39:324 -> 2228.00
16:29:39:333 -> 2270.00
16:29:39:333 -> 2341.00
16:29:39:333 -> 2325.00
16:29:39:333 -> 2185.00
16:29:39:333 -> 2183.00
16:29:39:333 -> 2226.00
16:29:39:333 -> 2117.00
16:29:39:334 -> 2216.00
16:29:39:337 -> 2205.00
16:29:39:337 -> 2239.00
16:29:39:337 -> 2372.00
16:29:39:340 -> 2327.00
16:29:39:340 -> 2256.00
16:29:39:345 -> 2241.00
16:29:39:345 -> 2188.00
16:29:39:345 -> 2170.00
16:29:39:345 -> 2226.00
16:29:39:346 -> 2268.00
16:29:39:347 -> 2339.00
16:29:39:348 -> 2329.00
16:29:39:349 -> 2182.00
16:29:39:352 -> 2097.00
16:29:39:353 -> 2159.00
16:29:39:353 -> 2174.00
16:29:39:354 -> 2199.00
16:29:39:355 -> 2199.00
16:29:39:356 -> 2141.00
16:29:39:357 -> 2140.00
16:29:39:359 -> 2144.00
16:29:39:360 -> 2227.00
16:29:39:361 -> 2172.00
16:29:39:362 -> 2184.00
16:29:39:363 -> 2277.00
16:29:39:364 -> 2336.00
16:29:39:366 -> 2296.00
16:29:39:367 -> 2347.00
16:29:39:368 -> 2299.00
16:29:39:369 -> 2258.00
16:29:39:370 -> 2197.00
16:29:39:372 -> 2243.00
16:29:39:373 -> 2307.00
16:29:39:374 -> 2262.00
16:29:39:375 -> 2250.00
16:29:39:376 -> 2225.00
16:29:39:378 -> 2185.00
16:29:39:379 -> 2229.00
16:29:39:381 -> 2213.00
16:29:39:382 -> 2231.00
16:29:39:383 -> 2242.00
16:29:39:387 -> 2272.00
16:29:39:387 -> 2240.00
16:29:39:387 -> 2213.00
16:29:39:387 -> 2219.00
16:29:39:388 -> 2200.00
16:29:39:389 -> 2217.00
16:29:39:391 -> 2191.00
16:29:39:392 -> 2209.00
16:29:39:393 -> 2242.00
16:29:39:394 -> 2227.00
16:29:39:395 -> 2257.00
16:29:39:397 -> 2222.00
16:29:39:398 -> 2284.00
16:29:39:399 -> 2333.00
16:29:39:406 -> 2301.00
16:29:39:415 -> 2249.00
16:29:39:415 -> 2122.00
16:29:39:415 -> 2158.00
16:29:39:415 -> 2230.00
16:29:39:415 -> 2256.00
16:29:39:415 -> 2185.00
16:29:39:415 -> 2200.00
16:29:39:415 -> 2203.00
16:29:39:415 -> 2202.00
16:29:39:415 -> 2239.00
16:29:39:418 -> 2225.00
16:29:39:418 -> 2189.00
16:29:39:418 -> 2185.00
16:29:39:418 -> 2297.00
16:29:39:418 -> 2329.00
16:29:39:422 -> 2290.00
16:29:39:422 -> 2253.00
16:29:39:422 -> 2240.00
16:29:39:423 -> 2252.00
16:29:39:426 -> 2299.00
16:29:39:426 -> 2219.00
16:29:39:427 -> 2188.00
16:29:39:428 -> 2189.00
16:29:39:429 -> 2266.00
16:29:39:430 -> 2265.00
16:29:39:431 -> 2223.00
16:29:39:432 -> 2189.00
16:29:39:433 -> 2214.00
16:29:39:435 -> 2210.00
16:29:39:437 -> 2281.00
16:29:39:437 -> 2309.00
16:29:39:438 -> 2261.00
16:29:39:439 -> 2201.00
16:29:39:441 -> 2144.00
16:29:39:442 -> 2212.00
16:29:39:443 -> 2193.00
16:29:39:444 -> 2129.00
16:29:39:445 -> 2279.00
16:29:39:447 -> 2283.00
16:29:39:448 -> 2202.00
16:29:39:449 -> 2231.00
16:29:39:450 -> 2241.00
16:29:39:466 -> 2281.00
16:29:39:466 -> 2228.00
16:29:39:466 -> 2201.00
16:29:39:466 -> 2233.00
16:29:39:466 -> 2183.00
16:29:39:466 -> 2150.00
16:29:39:466 -> 2170.00
16:29:39:466 -> 2273.00
16:29:39:466 -> 2189.00
16:29:39:466 -> 2227.00
16:29:39:466 -> 2292.00
16:29:39:466 -> 2375.00
16:29:39:466 -> 2344.00
16:29:39:491 -> 2242.00
16:29:39:491 -> 2244.00
16:29:39:491 -> 2243.00
16:29:39:491 -> 2194.00
16:29:39:491 -> 2247.00
16:29:39:491 -> 2228.00
16:29:39:491 -> 2161.00
16:29:39:491 -> 2233.00
16:29:39:491 -> 2217.00
16:29:39:491 -> 2207.00
16:29:39:491 -> 2331.00
16:29:39:491 -> 2341.00
16:29:39:491 -> 2327.00
16:29:39:496 -> 2296.00
16:29:39:496 -> 2308.00
16:29:39:496 -> 2256.00
16:29:39:496 -> 2274.00
16:29:39:496 -> 2197.00
16:29:39:496 -> 2142.00
16:29:39:496 -> 2148.00
16:29:39:496 -> 2162.00
16:29:39:496 -> 2227.00
16:29:39:496 -> 2277.00
16:29:39:497 -> 2236.00
16:29:39:497 -> 2248.00
16:29:39:497 -> 2216.00
16:29:39:498 -> 2248.00
16:29:39:499 -> 2210.00
16:29:39:500 -> 2199.00
16:29:39:501 -> 2286.00
16:29:39:503 -> 2282.00
16:29:39:504 -> 2279.00
16:29:39:505 -> 2228.00
16:29:39:506 -> 2250.00
16:29:39:508 -> 2230.00
16:29:39:541 -> 2173.00
16:29:39:541 -> 2148.00
16:29:39:541 -> 2181.00
16:29:39:541 -> 2228.00
16:29:39:541 -> 2296.00
16:29:39:541 -> 2290.00
16:29:39:541 -> 2264.00
16:29:39:541 -> 2243.00
16:29:39:541 -> 2261.00
16:29:39:541 -> 2243.00
16:29:39:541 -> 2263.00
16:29:39:541 -> 2253.00
16:29:39:541 -> 2214.00
16:29:39:541 -> 2235.00
16:29:39:541 -> 2172.00
16:29:39:541 -> 2140.00
16:29:39:541 -> 2082.00
16:29:39:541 -> 2070.00
16:29:39:541 -> 2138.00
16:29:39:541 -> 2186.00
16:29:39:541 -> 2203.00
16:29:39:541 -> 2234.00
16:29:39:541 -> 2390.00
16:29:39:541 -> 2304.00
16:29:39:541 -> 2240.00
16:29:39:541 -> 2289.00
16:29:39:541 -> 2343.00
16:29:39:541 -> 2189.00
16:29:39:565 -> 2269.00
16:29:39:565 -> 2173.00
16:29:39:565 -> 2244.00
16:29:39:565 -> 2276.00
16:29:39:565 -> 2223.00
16:29:39:565 -> 2183.00
16:29:39:565 -> 2215.00
16:29:39:565 -> 2273.00
16:29:39:565 -> 2287.00
16:29:39:565 -> 2252.00
16:29:39:565 -> 2213.00
16:29:39:565 -> 2265.00
16:29:39:565 -> 2273.00
16:29:39:565 -> 2258.00
16:29:39:565 -> 2286.00
16:29:39:565 -> 2265.00
16:29:39:565 -> 2209.00
16:29:39:565 -> 2239.00
16:29:39:565 -> 2199.00
16:29:39:565 -> 2169.00
16:29:39:582 -> 2262.00
16:29:39:582 -> 2288.00
16:29:39:582 -> 2276.00
16:29:39:582 -> 2259.00
16:29:39:582 -> 2223.00
16:29:39:582 -> 2221.00
16:29:39:582 -> 2241.00
16:29:39:582 -> 2296.00
16:29:39:582 -> 2249.00
16:29:39:582 -> 2245.00
16:29:39:582 -> 2241.00
16:29:39:582 -> 2227.00
16:29:39:582 -> 2206.00
16:29:39:582 -> 2281.00
16:29:39:633 -> 2354.00
16:29:39:633 -> 2241.00
16:29:39:633 -> 2102.00
16:29:39:633 -> 2236.00
16:29:39:633 -> 2254.00
16:29:39:633 -> 2247.00
16:29:39:633 -> 2266.00
16:29:39:633 -> 2264.00
16:29:39:633 -> 2259.00
16:29:39:633 -> 2251.00
16:29:39:633 -> 2252.00
16:29:39:633 -> 2261.00
16:29:39:633 -> 2237.00
16:29:39:633 -> 2216.00
16:29:39:633 -> 2181.00
16:29:39:633 -> 2151.00
16:29:39:633 -> 2121.00
16:29:39:633 -> 2182.00
16:29:39:633 -> 2236.00
16:29:39:633 -> 2270.00
16:29:39:633 -> 2232.00
16:29:39:633 -> 2255.00
16:29:39:633 -> 2264.00
16:29:39:633 -> 2189.00
16:29:39:633 -> 2207.00
16:29:39:633 -> 2203.00
16:29:39:633 -> 2282.00
16:29:39:633 -> 2230.00
16:29:39:633 -> 2253.00
16:29:39:633 -> 2251.00
16:29:39:633 -> 2236.00
16:29:39:633 -> 2265.00
16:29:39:633 -> 2178.00
16:29:39:633 -> 2187.00
16:29:39:633 -> 2207.00
16:29:39:633 -> 2187.00
16:29:39:633 -> 2116.00
16:29:39:633 -> 2009.00
16:29:39:633 -> 2128.00
16:29:39:633 -> 2265.00
16:29:39:633 -> 2246.00
16:29:39:633 -> 2204.00
16:29:39:633 -> 2414.00
16:29:39:646 -> 2408.00
16:29:39:646 -> 2355.00
16:29:39:646 -> 2275.00
16:29:39:646 -> 2279.00
16:29:39:646 -> 2225.00
16:29:39:646 -> 2291.00
16:29:39:646 -> 2320.00
16:29:39:646 -> 2302.00
16:29:39:646 -> 2307.00
16:29:39:646 -> 2306.00
16:29:39:646 -> 2253.00
16:29:39:652 -> 2261.00
16:29:39:652 -> 2247.00
16:29:39:652 -> 2250.00
16:29:39:652 -> 2227.00
16:29:39:652 -> 2237.00
16:29:39:654 -> 2233.00
16:29:39:654 -> 2241.00
16:29:39:655 -> 2246.00
16:29:39:656 -> 2305.00
16:29:39:681 -> 2273.00
16:29:39:681 -> 2281.00
16:29:39:681 -> 2179.00
16:29:39:681 -> 2262.00
16:29:39:681 -> 2263.00
16:29:39:681 -> 2250.00
16:29:39:681 -> 2186.00
16:29:39:681 -> 2223.00
16:29:39:681 -> 2250.00
16:29:39:681 -> 2267.00
16:29:39:681 -> 2253.00
16:29:39:681 -> 2202.00
16:29:39:681 -> 2164.00
16:29:39:681 -> 2193.00
16:29:39:681 -> 2235.00
16:29:39:681 -> 2242.00
16:29:39:681 -> 2247.00
16:29:39:681 -> 2298.00
16:29:39:681 -> 2333.00
16:29:39:681 -> 2342.00
16:29:39:681 -> 2250.00
16:29:39:686 -> 2160.00
16:29:39:686 -> 2181.00
16:29:39:686 -> 2230.00
16:29:39:686 -> 2191.00
16:29:39:688 -> 2128.00
16:29:39:689 -> 2194.00
16:29:39:689 -> 2221.00
16:29:39:729 -> 2217.00
16:29:39:738 -> 2214.00
16:29:39:738 -> 2263.00
16:29:39:738 -> 2270.00
16:29:39:738 -> 2216.00
16:29:39:738 -> 2163.00
16:29:39:738 -> 2133.00
16:29:39:738 -> 2243.00
16:29:39:738 -> 2261.00
16:29:39:738 -> 2212.00
16:29:39:738 -> 2226.00
16:29:39:738 -> 2186.00
16:29:39:738 -> 2171.00
16:29:39:738 -> 2126.00
16:29:39:738 -> 2215.00
16:29:39:738 -> 2245.00
16:29:39:738 -> 2283.00
16:29:39:738 -> 2282.00
16:29:39:738 -> 2202.00
16:29:39:738 -> 2202.00
16:29:39:738 -> 2213.00
16:29:39:738 -> 2185.00
16:29:39:738 -> 2272.00
16:29:39:738 -> 2275.00
16:29:39:738 -> 2277.00
16:29:39:738 -> 2251.00
16:29:39:738 -> 2260.00
16:29:39:738 -> 2311.00
16:29:39:738 -> 2322.00
16:29:39:738 -> 2327.00
16:29:39:738 -> 2296.00
16:29:39:738 -> 2222.00
16:29:39:738 -> 2200.00
16:29:39:738 -> 2259.00
16:29:39:738 -> 2279.00
16:29:39:738 -> 2243.00
16:29:39:738 -> 2284.00
16:29:39:738 -> 2233.00
16:29:39:738 -> 2194.00
16:29:39:738 -> 2202.00
16:29:39:738 -> 2233.00
16:29:39:740 -> 2294.00
16:29:39:747 -> 2333.00
16:29:39:747 -> 2273.00
16:29:39:747 -> 2256.00
16:29:39:747 -> 2267.00
16:29:39:747 -> 2268.00
16:29:39:747 -> 2228.00
16:29:39:759 -> 2225.00
16:29:39:759 -> 2251.00
16:29:39:759 -> 2233.00
16:29:39:759 -> 2212.00
16:29:39:759 -> 2224.00
16:29:39:759 -> 2213.00
16:29:39:759 -> 2266.00
16:29:39:759 -> 2202.00
16:29:39:759 -> 2180.00
16:29:39:765 -> 2281.00
16:29:39:765 -> 2271.00
16:29:39:765 -> 2268.00
16:29:39:765 -> 2293.00
16:29:39:765 -> 2294.00
16:29:39:765 -> 2253.00
16:29:39:769 -> 2232.00
16:29:39:769 -> 2245.00
16:29:39:769 -> 2207.00
16:29:39:773 -> 2165.00
16:29:39:773 -> 2200.00
16:29:39:773 -> 2217.00
16:29:39:773 -> 2241.00
16:29:39:775 -> 2309.00
16:29:39:776 -> 2289.00
16:29:39:782 -> 2270.00
16:29:39:782 -> 2272.00
16:29:39:782 -> 2230.00
16:29:39:782 -> 2112.00
16:29:39:782 -> 2189.00
16:29:39:782 -> 2211.00
16:29:39:797 -> 2205.00
16:29:39:797 -> 2211.00
16:29:39:797 -> 2287.00
16:29:39:797 -> 2290.00
16:29:39:797 -> 2312.00
16:29:39:797 -> 2286.00
16:29:39:797 -> 2218.00
16:29:39:797 -> 2285.00
16:29:39:797 -> 2236.00
16:29:39:797 -> 2260.00
16:29:39:797 -> 2139.00
16:29:39:797 -> 2106.00
16:29:39:799 -> 2149.00
16:29:39:799 -> 2160.00
16:29:39:800 -> 2179.00
16:29:39:801 -> 2147.00
16:29:39:803 -> 2204.00
16:29:39:804 -> 2200.00
16:29:39:805 -> 2220.00
16:29:39:806 -> 2290.00
16:29:39:808 -> 2264.00
16:29:39:809 -> 2278.00
16:29:39:810 -> 2225.00
16:29:39:811 -> 2198.00
16:29:39:812 -> 2157.00
16:29:39:813 -> 2267.00
16:29:39:814 -> 2260.00
16:29:39:815 -> 2216.00
16:29:39:817 -> 2226.00
16:29:39:818 -> 2240.00
16:29:39:819 -> 2268.00
16:29:39:820 -> 2345.00
16:29:39:821 -> 2330.00
16:29:39:823 -> 2287.00
16:29:39:824 -> 2223.00
16:29:39:825 -> 2239.00
16:29:39:826 -> 2206.00
16:29:39:827 -> 2215.00
16:29:39:829 -> 2257.00
16:29:39:830 -> 2265.00
16:29:39:832 -> 2295.00
16:29:39:833 -> 2259.00
16:29:39:834 -> 2289.00
16:29:39:835 -> 2307.00
16:29:39:837 -> 2226.00
16:29:39:837 -> 2202.00
16:29:39:838 -> 2295.00
16:29:39:839 -> 2272.00
16:29:39:840 -> 2299.00
16:29:39:842 -> 2218.00
16:29:39:843 -> 2182.00
16:29:39:844 -> 2242.00
16:29:39:845 -> 2310.00
16:29:39:847 -> 2333.00
16:29:39:848 -> 2309.00
16:29:39:849 -> 2211.00
16:29:39:850 -> 2241.00
16:29:39:851 -> 2232.00
16:29:39:853 -> 2253.00
16:29:39:854 -> 2272.00
16:29:39:855 -> 2169.00
16:29:39:856 -> 2195.00
16:29:39:857 -> 2250.00
16:29:39:858 -> 2203.00
16:29:39:859 -> 2213.00
16:29:39:861 -> 2257.00
16:29:39:862 -> 2250.00
16:29:39:864 -> 2231.00
16:29:39:868 -> 2236.00
16:29:39:868 -> 2251.00
16:29:39:868 -> 2327.00
16:29:39:879 -> 2270.00
16:29:39:879 -> 2127.00
16:29:39:879 -> 2148.00
16:29:39:879 -> 2190.00
16:29:39:879 -> 2208.00
16:29:39:879 -> 2291.00
16:29:39:879 -> 2279.00
16:29:39:879 -> 2291.00
16:29:39:879 -> 2290.00
16:29:39:879 -> 2307.00
16:29:39:880 -> 2259.00
16:29:39:884 -> 2207.00
16:29:39:884 -> 2187.00
16:29:39:884 -> 2227.00
16:29:39:887 -> 2165.00
16:29:39:887 -> 2229.00
16:29:39:906 -> 2255.00
16:29:39:906 -> 2235.00
16:29:39:906 -> 2115.00
16:29:39:906 -> 2187.00
16:29:39:906 -> 2169.00
16:29:39:906 -> 2170.00
16:29:39:906 -> 2272.00
16:29:39:906 -> 2340.00
16:29:39:906 -> 2290.00
16:29:39:906 -> 2339.00
16:29:39:906 -> 2337.00
16:29:39:906 -> 2360.00
16:29:39:906 -> 2219.00
16:29:39:906 -> 2261.00
16:29:39:906 -> 2249.00
16:29:39:906 -> 2220.00
16:29:39:906 -> 2235.00
16:29:39:913 -> 2224.00
16:29:39:913 -> 2225.00
16:29:39:913 -> 2190.00
16:29:39:913 -> 2220.00
16:29:39:913 -> 2269.00
16:29:39:917 -> 2300.00
16:29:39:917 -> 2257.00
16:29:39:917 -> 2166.00
16:29:39:917 -> 2256.00
16:29:39:934 -> 2284.00
16:29:39:934 -> 2254.00
16:29:39:934 -> 2262.00
16:29:39:934 -> 2293.00
16:29:39:934 -> 2338.00
16:29:39:934 -> 2291.00
16:29:39:934 -> 2206.00
16:29:39:934 -> 2196.00
16:29:39:934 -> 2228.00
16:29:39:934 -> 2250.00
16:29:39:934 -> 2220.00
16:29:39:934 -> 2291.00
16:29:39:934 -> 2266.00
16:29:39:934 -> 2210.00
16:29:39:934 -> 2175.00
16:29:39:942 -> 2234.00
16:29:39:942 -> 2320.00
16:29:39:942 -> 2288.00
16:29:39:942 -> 2224.00
16:29:39:942 -> 2265.00
16:29:39:942 -> 2233.00
16:29:39:948 -> 2270.00
16:29:39:948 -> 2235.00
16:29:39:948 -> 2235.00
16:29:39:948 -> 2268.00
16:29:39:948 -> 2259.00
16:29:39:949 -> 2257.00
16:29:39:950 -> 2183.00
16:29:39:951 -> 2210.00
16:29:39:952 -> 2205.00
16:29:39:954 -> 2251.00
16:29:39:955 -> 2196.00
16:29:39:956 -> 2202.00
16:29:39:957 -> 2281.00
16:29:39:958 -> 2286.00
16:29:39:959 -> 2325.00
16:29:39:961 -> 2298.00
16:29:39:962 -> 2239.00
16:29:39:963 -> 2189.00
16:29:39:964 -> 2175.00
16:29:39:966 -> 2167.00
16:29:39:967 -> 2140.00
16:29:39:968 -> 2264.00
16:29:39:969 -> 2274.00
16:29:39:970 -> 2257.00
16:29:39:971 -> 2262.00
16:29:39:973 -> 2233.00
16:29:39:974 -> 2237.00
16:29:39:975 -> 2211.00
16:29:39:976 -> 2261.00
16:29:39:977 -> 2253.00
16:29:39:978 -> 2294.00
16:29:39:980 -> 2285.00
16:29:39:981 -> 2313.00
16:29:39:982 -> 2270.00
16:29:39:983 -> 2275.00
16:29:39:984 -> 2204.00
16:29:39:997 -> 2192.00
16:29:40:010 -> 2214.00
16:29:40:010 -> 2204.00
16:29:40:010 -> 2221.00
16:29:40:010 -> 2305.00
16:29:40:010 -> 2324.00
16:29:40:010 -> 2334.00
16:29:40:010 -> 2282.00
16:29:40:010 -> 2243.00
16:29:40:010 -> 2252.00
16:29:40:010 -> 2270.00
16:29:40:010 -> 2234.00
16:29:40:015 -> 2247.00
16:29:40:015 -> 2138.00
16:29:40:015 -> 2275.00
16:29:40:015 -> 2249.00
16:29:40:015 -> 2292.00
16:29:40:015 -> 2244.00
16:29:40:015 -> 2202.00
16:29:40:015 -> 2171.00
16:29:40:015 -> 2218.00
16:29:40:015 -> 2161.00
16:29:40:018 -> 2202.00
16:29:40:018 -> 2333.00
16:29:40:018 -> 2335.00
16:29:40:018 -> 2276.00
16:29:40:018 -> 2177.00
16:29:40:019 -> 2181.00
16:29:40:020 -> 2258.00
16:29:40:020 -> 2300.00
16:29:40:027 -> 2227.00
16:29:40:027 -> 2155.00
16:29:40:027 -> 2246.00
16:29:40:027 -> 2301.00
16:29:40:027 -> 2335.00
16:29:40:027 -> 2293.00
16:29:40:029 -> 2190.00
16:29:40:036 -> 2227.00
16:29:40:036 -> 2258.00
16:29:40:036 -> 2258.00
16:29:40:036 -> 2276.00
16:29:40:036 -> 2226.00
16:29:40:036 -> 2182.00
16:29:40:037 -> 2247.00
16:29:40:038 -> 2246.00
16:29:40:039 -> 2263.00
16:29:40:040 -> 2221.00
16:29:40:042 -> 2217.00
16:29:40:043 -> 2251.00
16:29:40:044 -> 2283.00
16:29:40:045 -> 2228.00
16:29:40:046 -> 2211.00
16:29:40:048 -> 2225.00
16:29:40:050 -> 2248.00
16:29:40:050 -> 2214.00
16:29:40:051 -> 2271.00
16:29:40:052 -> 2289.00
16:29:40:054 -> 2263.00
16:29:40:057 -> 2281.00
16:29:40:057 -> 2225.00
16:29:40:057 -> 2299.00
16:29:40:058 -> 2297.00
16:29:40:059 -> 2206.00
16:29:40:061 -> 2229.00
16:29:40:062 -> 2235.00
16:29:40:063 -> 2282.00
16:29:40:064 -> 2253.00
16:29:40:065 -> 2195.00
16:29:40:068 -> 2193.00
16:29:40:068 -> 2242.00
16:29:40:070 -> 2265.00
16:29:40:071 -> 2236.00
16:29:40:071 -> 2202.00
16:29:40:082 -> 2204.00
16:29:40:082 -> 2234.00
16:29:40:082 -> 2257.00
16:29:40:082 -> 2214.00
16:29:40:082 -> 2272.00
16:29:40:082 -> 2283.00
16:29:40:082 -> 2256.00
16:29:40:082 -> 2250.00
16:29:40:082 -> 2260.00
16:29:40:083 -> 2202.00
16:29:40:084 -> 2219.00
16:29:40:087 -> 2348.00
16:29:40:089 -> 2439.00
16:29:40:089 -> 2302.00
16:29:40:091 -> 2227.00
16:29:40:091 -> 2236.00
16:29:40:093 -> 2239.00
16:29:40:093 -> 2207.00
16:29:40:102 -> 2232.00
16:29:40:102 -> 2254.00
16:29:40:102 -> 2253.00
16:29:40:102 -> 2273.00
16:29:40:102 -> 2253.00
16:29:40:102 -> 2211.00
16:29:40:102 -> 2201.00
16:29:40:143 -> 2268.00
16:29:40:143 -> 2249.00
16:29:40:143 -> 2243.00
16:29:40:143 -> 2239.00
16:29:40:143 -> 2225.00
16:29:40:143 -> 2173.00
16:29:40:143 -> 2202.00
16:29:40:143 -> 2246.00
16:29:40:143 -> 2280.00
16:29:40:143 -> 2273.00
16:29:40:143 -> 2255.00
16:29:40:143 -> 2252.00
16:29:40:143 -> 2237.00
16:29:40:156 -> 2306.00
16:29:40:156 -> 2333.00
16:29:40:156 -> 2187.00
16:29:40:156 -> 2202.00
16:29:40:156 -> 2225.00
16:29:40:156 -> 2162.00
16:29:40:156 -> 2098.00
16:29:40:156 -> 2193.00
16:29:40:156 -> 2216.00
16:29:40:156 -> 2260.00
16:29:40:156 -> 2218.00
16:29:40:156 -> 2235.00
16:29:40:156 -> 2321.00
16:29:40:156 -> 2294.00
16:29:40:156 -> 2302.00
16:29:40:156 -> 2322.00
16:29:40:156 -> 2331.00
16:29:40:156 -> 2292.00
16:29:40:156 -> 2284.00
16:29:40:156 -> 2363.00
16:29:40:156 -> 2350.00
16:29:40:156 -> 2281.00
16:29:40:156 -> 2197.00
16:29:40:156 -> 2086.00
16:29:40:156 -> 2160.00
16:29:40:156 -> 2244.00
16:29:40:156 -> 2217.00
16:29:40:156 -> 2249.00
16:29:40:156 -> 2234.00
16:29:40:156 -> 2303.00
16:29:40:156 -> 2265.00
16:29:40:156 -> 2311.00
16:29:40:195 -> 2304.00
16:29:40:195 -> 2285.00
16:29:40:195 -> 2296.00
16:29:40:195 -> 2306.00
16:29:40:195 -> 2267.00
16:29:40:195 -> 2246.00
16:29:40:195 -> 2232.00
16:29:40:195 -> 2138.00
16:29:40:195 -> 2094.00
16:29:40:195 -> 2140.00
16:29:40:195 -> 2168.00
16:29:40:195 -> 2195.00
16:29:40:195 -> 2270.00
16:29:40:195 -> 2266.00
16:29:40:195 -> 2288.00
16:29:40:195 -> 2264.00
16:29:40:195 -> 2312.00
16:29:40:195 -> 2252.00
16:29:40:195 -> 2301.00
16:29:40:195 -> 2252.00
16:29:40:195 -> 2221.00
16:29:40:195 -> 2191.00
16:29:40:195 -> 2289.00
16:29:40:195 -> 2335.00
16:29:40:195 -> 2343.00
16:29:40:195 -> 2230.00
16:29:40:195 -> 2225.00
16:29:40:195 -> 2249.00
16:29:40:195 -> 2242.00
16:29:40:195 -> 2222.00
16:29:40:195 -> 2221.00
16:29:40:195 -> 2233.00
16:29:40:195 -> 2222.00
16:29:40:222 -> 2185.00
16:29:40:222 -> 2246.00
16:29:40:222 -> 2237.00
16:29:40:222 -> 2260.00
16:29:40:222 -> 2262.00
16:29:40:222 -> 2310.00
16:29:40:222 -> 2261.00
16:29:40:222 -> 2251.00
16:29:40:222 -> 2281.00
16:29:40:222 -> 2295.00
16:29:40:222 -> 2246.00
16:29:40:222 -> 2208.00
16:29:40:222 -> 2254.00
16:29:40:222 -> 2274.00
16:29:40:222 -> 2206.00
16:29:40:222 -> 2224.00
16:29:40:222 -> 2271.00
16:29:40:222 -> 2279.00
16:29:40:222 -> 2323.00
16:29:40:222 -> 2319.00
16:29:40:222 -> 2235.00
16:29:40:222 -> 2150.00
16:29:40:222 -> 2240.00
16:29:40:267 -> 2261.00
16:29:40:267 -> 2290.00
16:29:40:267 -> 2283.00
16:29:40:267 -> 2268.00
16:29:40:267 -> 2271.00
16:29:40:267 -> 2255.00
16:29:40:267 -> 2234.00
16:29:40:267 -> 2256.00
16:29:40:267 -> 2259.00
16:29:40:267 -> 2218.00
16:29:40:267 -> 2154.00
16:29:40:267 -> 2128.00
16:29:40:267 -> 2241.00
16:29:40:267 -> 2231.00
16:29:40:267 -> 2215.00
16:29:40:267 -> 2308.00
16:29:40:267 -> 2351.00
16:29:40:281 -> 2292.00
16:29:40:281 -> 2249.00
16:29:40:281 -> 2188.00
16:29:40:281 -> 2125.00
16:29:40:281 -> 2234.00
16:29:40:281 -> 2299.00
16:29:40:281 -> 2357.00
16:29:40:281 -> 2244.00
16:29:40:281 -> 2195.00
16:29:40:281 -> 2234.00
16:29:40:281 -> 2253.00
16:29:40:281 -> 2240.00
16:29:40:281 -> 2225.00
16:29:40:281 -> 2195.00
16:29:40:281 -> 2251.00
16:29:40:281 -> 2281.00
16:29:40:281 -> 2334.00
16:29:40:281 -> 2325.00
16:29:40:281 -> 2302.00
16:29:40:281 -> 2303.00
16:29:40:281 -> 2291.00
16:29:40:281 -> 2304.00
16:29:40:281 -> 2266.00
16:29:40:281 -> 2248.00
16:29:40:281 -> 2166.00
16:29:40:286 -> 2200.00
16:29:40:286 -> 2318.00
16:29:40:286 -> 2400.00
16:29:40:286 -> 2296.00
16:29:40:286 -> 2262.00
16:29:40:286 -> 2246.00
16:29:40:286 -> 2288.00
